EESC time series (in pptv) for different ages of air
Age of air spectrum width is half the age of air
Fractional release type is "WMO_2010", using inorganic chlorine and a bromine scaling factor of 60
               1.0       2.0       3.0       4.0       5.0       6.0
  1950.0   129.308   313.355   490.084   653.711   809.927   906.446
  1950.1   129.498   313.820   490.832   654.714   811.128   907.684
  1950.2   129.689   314.285   491.582   655.720   812.335   908.929
  1950.3   129.879   314.750   492.334   656.729   813.547   910.181
  1950.4   130.070   315.216   493.086   657.741   814.764   911.440
  1950.5   130.260   315.682   493.840   658.756   815.985   912.706
  1950.6   130.451   316.149   494.595   659.773   817.212   913.978
  1950.7   130.641   316.615   495.351   660.793   818.443   915.257
  1950.8   130.832   317.082   496.108   661.816   819.679   916.543
  1950.9   131.022   317.549   496.866   662.841   820.919   917.835
  1951.0   131.213   318.017   497.625   663.869   822.164   919.132
  1951.1   131.403   318.484   498.385   664.898   823.412   920.436
  1951.2   131.594   318.952   499.146   665.930   824.665   921.746
  1951.3   131.784   319.419   499.908   666.964   825.922   923.061
  1951.4   131.974   319.887   500.670   668.000   827.182   924.382
  1951.5   132.163   320.355   501.433   669.038   828.446   925.707
  1951.6   132.352   320.823   502.197   670.078   829.713   927.039
  1951.7   132.539   321.290   502.961   671.119   830.984   928.375
  1951.8   132.726   321.758   503.726   672.163   832.258   929.717
  1951.9   132.913   322.224   504.491   673.208   833.536   931.063
  1952.0   133.099   322.691   505.257   674.254   834.816   932.414
  1952.1   133.284   323.157   506.023   675.302   836.100   933.770
  1952.2   133.469   323.623   506.788   676.351   837.388   935.130
  1952.3   133.654   324.088   507.554   677.402   838.678   936.496
  1952.4   133.839   324.553   508.320   678.454   839.971   937.867
  1952.5   134.023   325.017   509.086   679.507   841.268   939.242
  1952.6   134.207   325.482   509.852   680.562   842.568   940.623
  1952.7   134.391   325.945   510.618   681.618   843.871   942.008
  1952.8   134.575   326.409   511.383   682.674   845.177   943.398
  1952.9   134.758   326.872   512.149   683.732   846.486   944.794
  1953.0   134.942   327.335   512.915   684.791   847.797   946.194
  1953.1   135.125   327.798   513.681   685.851   849.112   947.599
  1953.2   135.308   328.261   514.446   686.912   850.430   949.009
  1953.3   135.492   328.723   515.212   687.973   851.750   950.425
  1953.4   135.675   329.185   515.977   689.036   853.073   951.845
  1953.5   135.858   329.647   516.743   690.099   854.399   953.270
  1953.6   136.041   330.109   517.508   691.163   855.728   954.700
  1953.7   136.224   330.571   518.273   692.228   857.059   956.135
  1953.8   136.407   331.032   519.039   693.294   858.393   957.575
  1953.9   136.590   331.494   519.804   694.360   859.729   959.019
  1954.0   136.773   331.955   520.569   695.427   861.067   960.468
  1954.1   136.956   332.416   521.334   696.495   862.408   961.921
  1954.2   137.139   332.877   522.099   697.563   863.751   963.380
  1954.3   137.322   333.338   522.864   698.632   865.097   964.842
  1954.4   137.505   333.799   523.629   699.701   866.444   966.309
  1954.5   137.688   334.260   524.394   700.771   867.794   967.780
  1954.6   137.871   334.721   525.159   701.842   869.146   969.255
  1954.7   138.054   335.182   525.924   702.913   870.499   970.734
  1954.8   138.237   335.642   526.689   703.985   871.855   972.218
  1954.9   138.420   336.103   527.453   705.057   873.213   973.705
  1955.0   138.602   336.564   528.218   706.130   874.572   975.196
  1955.1   138.785   337.024   528.983   707.203   875.933   976.691
  1955.2   138.968   337.485   529.748   708.276   877.296   978.190
  1955.3   139.154   337.945   530.513   709.350   878.661   979.692
  1955.4   139.345   338.406   531.277   710.425   880.027   981.198
  1955.5   139.545   338.870   532.043   711.500   881.395   982.707
  1955.6   139.754   339.340   532.810   712.575   882.765   984.220
  1955.7   139.972   339.817   533.580   713.653   884.136   985.736
  1955.8   140.198   340.303   534.355   714.732   885.509   987.255
  1955.9   140.431   340.799   535.137   715.816   886.886   988.779
  1956.0   140.670   341.307   535.928   716.905   888.267   990.306
  1956.1   140.914   341.824   536.728   718.000   889.652   991.839
  1956.2   141.163   342.353   537.539   719.105   891.045   993.377
  1956.3   141.415   342.892   538.362   720.218   892.445   994.922
  1956.4   141.671   343.441   539.196   721.342   893.853   996.474
  1956.5   141.930   344.000   540.042   722.478   895.272   998.035
  1956.6   142.191   344.568   540.901   723.626   896.702   999.606
  1956.7   142.454   345.144   541.772   724.787   898.144  1001.187
  1956.8   142.719   345.728   542.654   725.961   899.598  1002.780
  1956.9   142.986   346.319   543.549   727.148   901.067  1004.385
  1957.0   143.254   346.917   544.455   728.349   902.549  1006.003
  1957.1   143.523   347.521   545.372   729.563   904.046  1007.635
  1957.2   143.793   348.132   546.299   730.791   905.557  1009.281
  1957.3   144.064   348.747   547.237   732.032   907.083  1010.942
  1957.4   144.335   349.368   548.185   733.286   908.625  1012.618
  1957.5   144.608   349.994   549.142   734.554   910.181  1014.309
  1957.6   144.880   350.623   550.108   735.834   911.753  1016.017
  1957.7   145.154   351.257   551.083   737.127   913.340  1017.740
  1957.8   145.427   351.895   552.066   738.432   914.942  1019.478
  1957.9   145.701   352.536   553.057   739.748   916.559  1021.233
  1958.0   145.976   353.180   554.056   741.076   918.191  1023.004
  1958.1   146.250   353.827   555.061   742.416   919.838  1024.791
  1958.2   146.525   354.476   556.074   743.766   921.498  1026.594
  1958.3   146.800   355.128   557.093   745.127   923.173  1028.413
  1958.4   147.075   355.783   558.117   746.497   924.861  1030.248
  1958.5   147.351   356.439   559.148   747.878   926.563  1032.098
  1958.6   147.626   357.098   560.184   749.268   928.278  1033.964
  1958.7   147.902   357.758   561.226   750.667   930.006  1035.845
  1958.8   148.177   358.420   562.272   752.075   931.747  1037.740
  1958.9   148.453   359.084   563.323   753.492   933.499  1039.651
  1959.0   148.729   359.749   564.379   754.916   935.264  1041.577
  1959.1   149.005   360.416   565.439   756.349   937.041  1043.516
  1959.2   149.281   361.084   566.502   757.789   938.829  1045.470
  1959.3   149.557   361.753   567.570   759.237   940.628  1047.437
  1959.4   149.833   362.423   568.641   760.691   942.437  1049.418
  1959.5   150.109   363.094   569.716   762.152   944.257  1051.412
  1959.6   150.385   363.766   570.794   763.620   946.088  1053.419
  1959.7   150.662   364.439   571.875   765.094   947.928  1055.439
  1959.8   150.938   365.112   572.960   766.574   949.778  1057.471
  1959.9   151.214   365.787   574.047   768.060   951.637  1059.516
  1960.0   151.491   366.462   575.136   769.552   953.505  1061.572
  1960.1   151.767   367.138   576.228   771.049   955.382  1063.640
  1960.2   152.043   367.814   577.323   772.551   957.267  1065.720
  1960.3   152.323   368.491   578.420   774.058   959.161  1067.810
  1960.4   152.610   369.170   579.519   775.570   961.063  1069.912
  1960.5   152.908   369.853   580.621   777.086   962.973  1072.024
  1960.6   153.218   370.544   581.727   778.608   964.890  1074.146
  1960.7   153.539   371.246   582.840   780.135   966.815  1076.279
  1960.8   153.870   371.961   583.962   781.670   968.748  1078.421
  1960.9   154.210   372.691   585.095   783.214   970.691  1080.575
  1961.0   154.558   373.435   586.241   784.768   972.644  1082.739
  1961.1   154.913   374.195   587.404   786.337   974.610  1084.916
  1961.2   155.273   374.970   588.582   787.920   976.589  1087.106
  1961.3   155.638   375.760   589.779   789.520   978.584  1089.310
  1961.4   156.008   376.564   590.994   791.138   980.597  1091.531
  1961.5   156.381   377.381   592.227   792.776   982.629  1093.768
  1961.6   156.757   378.211   593.478   794.435   984.681  1096.025
  1961.7   157.136   379.052   594.748   796.114   986.755  1098.302
  1961.8   157.517   379.905   596.036   797.815   988.851  1100.600
  1961.9   157.900   380.768   597.342   799.538   990.972  1102.922
  1962.0   158.285   381.641   598.665   801.283   993.117  1105.267
  1962.1   158.671   382.523   600.005   803.050   995.287  1107.636
  1962.2   159.058   383.413   601.361   804.838   997.482  1110.031
  1962.3   159.447   384.310   602.732   806.649   999.703  1112.452
  1962.4   159.836   385.215   604.118   808.480  1001.950  1114.900
  1962.5   160.227   386.126   605.519   810.332  1004.222  1117.375
  1962.6   160.618   387.043   606.932   812.205  1006.521  1119.877
  1962.7   161.009   387.966   608.359   814.098  1008.844  1122.406
  1962.8   161.401   388.894   609.798   816.009  1011.193  1124.963
  1962.9   161.794   389.827   611.249   817.940  1013.567  1127.548
  1963.0   162.187   390.765   612.712   819.889  1015.965  1130.161
  1963.1   162.580   391.706   614.185   821.856  1018.388  1132.800
  1963.2   162.974   392.651   615.668   823.840  1020.835  1135.467
  1963.3   163.367   393.600   617.161   825.841  1023.305  1138.161
  1963.4   163.761   394.552   618.662   827.858  1025.797  1140.882
  1963.5   164.156   395.508   620.173   829.890  1028.313  1143.630
  1963.6   164.550   396.465   621.692   831.938  1030.850  1146.404
  1963.7   164.945   397.426   623.219   834.000  1033.408  1149.203
  1963.8   165.339   398.389   624.753   836.076  1035.988  1152.028
  1963.9   165.734   399.354   626.295   838.165  1038.588  1154.878
  1964.0   166.129   400.321   627.843   840.268  1041.207  1157.753
  1964.1   166.524   401.290   629.397   842.383  1043.846  1160.652
  1964.2   166.919   402.261   630.958   844.510  1046.504  1163.574
  1964.3   167.314   403.234   632.524   846.648  1049.179  1166.520
  1964.4   167.709   404.208   634.096   848.798  1051.873  1169.488
  1964.5   168.105   405.184   635.673   850.959  1054.584  1172.479
  1964.6   168.500   406.160   637.255   853.130  1057.312  1175.492
  1964.7   168.895   407.139   638.842   855.311  1060.056  1178.526
  1964.8   169.291   408.118   640.433   857.501  1062.816  1181.582
  1964.9   169.686   409.098   642.029   859.701  1065.591  1184.657
  1965.0   170.082   410.079   643.628   861.910  1068.382  1187.753
  1965.1   170.477   411.062   645.232   864.127  1071.186  1190.869
  1965.2   170.873   412.045   646.839   866.352  1074.005  1194.003
  1965.3   171.275   413.029   648.449   868.585  1076.838  1197.156
  1965.4   171.693   414.016   650.063   870.826  1079.683  1200.327
  1965.5   172.134   415.012   651.681   873.075  1082.542  1203.517
  1965.6   172.598   416.025   653.307   875.331  1085.413  1206.723
  1965.7   173.086   417.059   654.945   877.598  1088.298  1209.947
  1965.8   173.594   418.120   656.601   879.877  1091.196  1213.188
  1965.9   174.120   419.210   658.278   882.172  1094.110  1216.447
  1966.0   174.663   420.331   659.981   884.488  1097.043  1219.725
  1966.1   175.219   421.484   661.715   886.827  1099.997  1223.025
  1966.2   175.788   422.668   663.481   889.196  1102.977  1226.347
  1966.3   176.366   423.882   665.282   891.596  1105.985  1229.695
  1966.4   176.954   425.125   667.118   894.030  1109.025  1233.072
  1966.5   177.548   426.396   668.991   896.500  1112.099  1236.480
  1966.6   178.150   427.692   670.900   899.010  1115.211  1239.922
  1966.7   178.756   429.013   672.845   901.559  1118.364  1243.401
  1966.8   179.367   430.356   674.826   904.150  1121.559  1246.919
  1966.9   179.983   431.720   676.841   906.782  1124.798  1250.479
  1967.0   180.602   433.105   678.891   909.455  1128.082  1254.082
  1967.1   181.223   434.507   680.973   912.171  1131.413  1257.731
  1967.2   181.848   435.927   683.086   914.927  1134.790  1261.426
  1967.3   182.474   437.362   685.231   917.725  1138.216  1265.170
  1967.4   183.103   438.812   687.404   920.564  1141.690  1268.963
  1967.5   183.733   440.275   689.605   923.442  1145.212  1272.806
  1967.6   184.364   441.750   691.833   926.358  1148.781  1276.699
  1967.7   184.997   443.238   694.087   929.313  1152.399  1280.644
  1967.8   185.631   444.735   696.365   932.305  1156.063  1284.640
  1967.9   186.265   446.243   698.666   935.333  1159.775  1288.687
  1968.0   186.901   447.760   700.990   938.395  1163.532  1292.786
  1968.1   187.537   449.285   703.334   941.492  1167.335  1296.935
  1968.2   188.174   450.818   705.699   944.621  1171.183  1301.135
  1968.3   188.812   452.359   708.082   947.783  1175.074  1305.386
  1968.4   189.449   453.906   710.484   950.975  1179.008  1309.687
  1968.5   190.088   455.459   712.902   954.196  1182.984  1314.037
  1968.6   190.726   457.018   715.337   957.446  1187.001  1318.436
  1968.7   191.365   458.582   717.788   960.724  1191.059  1322.883
  1968.8   192.004   460.151   720.253   964.029  1195.155  1327.378
  1968.9   192.644   461.725   722.733   967.360  1199.290  1331.919
  1969.0   193.284   463.303   725.225   970.715  1203.461  1336.506
  1969.1   193.923   464.885   727.730   974.094  1207.669  1341.138
  1969.2   194.563   466.470   730.247   977.496  1211.912  1345.815
  1969.3   195.204   468.059   732.776   980.921  1216.190  1350.535
  1969.4   195.844   469.652   735.315   984.366  1220.501  1355.297
  1969.5   196.484   471.247   737.864   987.833  1224.844  1360.102
  1969.6   197.125   472.844   740.424   991.318  1229.219  1364.947
  1969.7   197.765   474.445   742.992   994.823  1233.624  1369.832
  1969.8   198.406   476.047   745.569   998.347  1238.059  1374.756
  1969.9   199.047   477.652   748.155  1001.888  1242.523  1379.719
  1970.0   199.687   479.259   750.748  1005.445  1247.015  1384.719
  1970.1   200.328   480.868   753.349  1009.020  1251.534  1389.755
  1970.2   200.969   482.478   755.957  1012.609  1256.080  1394.827
  1970.3   201.620   484.091   758.572  1016.214  1260.651  1399.935
  1970.4   202.295   485.708   761.194  1019.833  1265.247  1405.076
  1970.5   203.003   487.340   763.824  1023.467  1269.867  1410.250
  1970.6   203.747   488.995   766.467  1027.116  1274.511  1415.458
  1970.7   204.524   490.683   769.129  1030.782  1279.179  1420.697
  1970.8   205.333   492.412   771.818  1034.470  1283.872  1425.968
  1970.9   206.169   494.185   774.540  1038.184  1288.593  1431.272
  1971.0   207.030   496.004   777.304  1041.932  1293.346  1436.610
  1971.1   207.910   497.870   780.112  1045.717  1298.135  1441.985
  1971.2   208.809   499.783   782.971  1049.547  1302.965  1447.400
  1971.3   209.723   501.741   785.881  1053.426  1307.841  1452.859
  1971.4   210.650   503.742   788.846  1057.358  1312.768  1458.365
  1971.5   211.588   505.784   791.865  1061.346  1317.749  1463.922
  1971.6   212.535   507.865   794.940  1065.394  1322.790  1469.534
  1971.7   213.491   509.982   798.069  1069.503  1327.894  1475.206
  1971.8   214.453   512.134   801.251  1073.674  1333.063  1480.940
  1971.9   215.422   514.317   804.487  1077.909  1338.300  1486.740
  1972.0   216.396   516.529   807.773  1082.207  1343.607  1492.608
  1972.1   217.374   518.769   811.109  1086.569  1348.986  1498.548
  1972.2   218.356   521.034   814.492  1090.993  1354.437  1504.560
  1972.3   219.341   523.322   817.921  1095.480  1359.961  1510.647
  1972.4   220.329   525.633   821.394  1100.029  1365.559  1516.810
  1972.5   221.320   527.963   824.910  1104.637  1371.230  1523.050
  1972.6   222.312   530.312   828.465  1109.304  1376.974  1529.369
  1972.7   223.307   532.679   832.060  1114.029  1382.791  1535.766
  1972.8   224.303   535.061   835.691  1118.810  1388.680  1542.242
  1972.9   225.301   537.458   839.357  1123.646  1394.641  1548.796
  1973.0   226.299   539.869   843.056  1128.534  1400.671  1555.429
  1973.1   227.299   542.292   846.787  1133.474  1406.770  1562.140
  1973.2   228.300   544.727   850.548  1138.464  1412.937  1568.929
  1973.3   229.301   547.173   854.338  1143.501  1419.170  1575.795
  1973.4   230.303   549.629   858.155  1148.586  1425.469  1582.737
  1973.5   231.306   552.094   861.998  1153.715  1431.831  1589.755
  1973.6   232.309   554.568   865.865  1158.887  1438.256  1596.847
  1973.7   233.313   557.050   869.756  1164.102  1444.741  1604.011
  1973.8   234.317   559.539   873.669  1169.357  1451.286  1611.249
  1973.9   235.322   562.035   877.604  1174.651  1457.889  1618.557
  1974.0   236.327   564.537   881.558  1179.982  1464.549  1625.935
  1974.1   237.332   567.045   885.531  1185.350  1471.262  1633.382
  1974.2   238.337   569.559   889.522  1190.753  1478.030  1640.896
  1974.3   239.343   572.078   893.531  1196.189  1484.849  1648.476
  1974.4   240.349   574.601   897.556  1201.657  1491.720  1656.122
  1974.5   241.354   577.129   901.596  1207.156  1498.639  1663.830
  1974.6   242.361   579.661   905.650  1212.686  1505.606  1671.600
  1974.7   243.367   582.197   909.719  1218.244  1512.619  1679.431
  1974.8   244.373   584.736   913.801  1223.830  1519.678  1687.322
  1974.9   245.379   587.279   917.896  1229.443  1526.780  1695.270
  1975.0   246.386   589.824   922.002  1235.081  1533.925  1703.276
  1975.1   247.392   592.372   926.120  1240.744  1541.111  1711.337
  1975.2   248.399   594.923   930.249  1246.430  1548.337  1719.452
  1975.3   249.413   597.477   934.388  1252.140  1555.601  1727.620
  1975.4   250.446   600.036   938.537  1257.872  1562.904  1735.839
  1975.5   251.505   602.605   942.696  1263.624  1570.243  1744.110
  1975.6   252.591   605.192   946.869  1269.398  1577.617  1752.430
  1975.7   253.703   607.803   951.059  1275.195  1585.027  1760.798
  1975.8   254.839   610.443   955.271  1281.015  1592.472  1769.213
  1975.9   255.996   613.114   959.508  1286.862  1599.952  1777.676
  1976.0   257.172   615.819   963.775  1292.740  1607.470  1786.185
  1976.1   258.363   618.557   968.075  1298.649  1615.027  1794.743
  1976.2   259.568   621.329   972.410  1304.594  1622.625  1803.349
  1976.3   260.785   624.132   976.783  1310.578  1630.266  1812.005
  1976.4   262.012   626.967   981.192  1316.601  1637.952  1820.711
  1976.5   263.248   629.830   985.640  1322.666  1645.685  1829.471
  1976.6   264.491   632.721   990.126  1328.774  1653.466  1838.283
  1976.7   265.740   635.638   994.650  1334.926  1661.297  1847.152
  1976.8   266.994   638.579   999.210  1341.121  1669.179  1856.076
  1976.9   268.253   641.543  1003.807  1347.362  1677.112  1865.057
  1977.0   269.516   644.527  1008.438  1353.646  1685.098  1874.097
  1977.1   270.783   647.531  1013.103  1359.974  1693.136  1883.195
  1977.2   272.052   650.553  1017.801  1366.346  1701.227  1892.353
  1977.3   273.324   653.592  1022.530  1372.761  1709.371  1901.570
  1977.4   274.598   656.646  1027.289  1379.217  1717.567  1910.847
  1977.5   275.874   659.714  1032.077  1385.715  1725.815  1920.184
  1977.6   277.152   662.796  1036.892  1392.252  1734.115  1929.580
  1977.7   278.431   665.890  1041.734  1398.829  1742.465  1939.036
  1977.8   279.712   668.996  1046.601  1405.443  1750.865  1948.551
  1977.9   280.993   672.112  1051.491  1412.095  1759.315  1958.124
  1978.0   282.275   675.237  1056.405  1418.782  1767.813  1967.756
  1978.1   283.558   678.372  1061.340  1425.504  1776.359  1977.445
  1978.2   284.842   681.515  1066.295  1432.259  1784.951  1987.190
  1978.3   286.127   684.665  1071.270  1439.047  1793.589  1996.992
  1978.4   287.412   687.823  1076.264  1445.866  1802.271  2006.849
  1978.5   288.697   690.988  1081.275  1452.716  1810.996  2016.760
  1978.6   289.983   694.158  1086.304  1459.595  1819.764  2026.724
  1978.7   291.269   697.334  1091.348  1466.502  1828.574  2036.741
  1978.8   292.556   700.516  1096.407  1473.436  1837.423  2046.808
  1978.9   293.843   703.702  1101.481  1480.397  1846.312  2056.927
  1979.0   295.130   706.893  1106.569  1487.383  1855.239  2067.095
  1979.1   296.417   710.088  1111.669  1494.393  1864.203  2077.313
  1979.2   297.704   713.287  1116.782  1501.427  1873.204  2087.577
  1979.3   298.992   716.490  1121.907  1508.483  1882.239  2097.888
  1979.4   300.280   719.696  1127.042  1515.561  1891.309  2108.244
  1979.5   301.568   722.905  1132.189  1522.660  1900.412  2118.646
  1979.6   302.856   726.117  1137.345  1529.779  1909.547  2129.090
  1979.7   304.144   729.332  1142.511  1536.918  1918.713  2139.578
  1979.8   305.432   732.549  1147.686  1544.075  1927.910  2150.107
  1979.9   306.720   735.769  1152.870  1551.251  1937.137  2160.677
  1980.0   308.008   738.991  1158.062  1558.443  1946.391  2171.286
  1980.1   309.297   742.215  1163.262  1565.653  1955.675  2181.935
  1980.2   310.585   745.440  1168.469  1572.878  1964.985  2192.621
  1980.3   311.871   748.668  1173.683  1580.119  1974.321  2203.344
  1980.4   313.149   751.896  1178.904  1587.375  1983.683  2214.104
  1980.5   314.417   755.122  1184.131  1594.645  1993.069  2224.899
  1980.6   315.674   758.344  1189.362  1601.928  2002.479  2235.729
  1980.7   316.920   761.558  1194.595  1609.224  2011.912  2246.591
  1980.8   318.157   764.763  1199.828  1616.530  2021.367  2257.486
  1980.9   319.386   767.958  1205.059  1623.844  2030.842  2268.413
  1981.0   320.608   771.141  1210.286  1631.165  2040.335  2279.370
  1981.1   321.823   774.312  1215.506  1638.490  2049.845  2290.355
  1981.2   323.032   777.473  1220.719  1645.818  2059.369  2301.367
  1981.3   324.235   780.622  1225.924  1653.146  2068.906  2312.404
  1981.4   325.428   783.760  1231.120  1660.473  2078.454  2323.464
  1981.5   326.609   786.885  1236.306  1667.798  2088.009  2334.546
  1981.6   327.779   789.997  1241.482  1675.119  2097.573  2345.647
  1981.7   328.938   793.093  1246.645  1682.435  2107.142  2356.767
  1981.8   330.087   796.174  1251.796  1689.745  2116.715  2367.903
  1981.9   331.228   799.239  1256.933  1697.049  2126.290  2379.054
  1982.0   332.362   802.288  1262.056  1704.343  2135.865  2390.218
  1982.1   333.489   805.322  1267.163  1711.629  2145.442  2401.393
  1982.2   334.610   808.341  1272.255  1718.904  2155.017  2412.580
  1982.3   335.726   811.345  1277.332  1726.169  2164.590  2423.776
  1982.4   336.837   814.336  1282.393  1733.422  2174.159  2434.979
  1982.5   337.941   817.314  1287.439  1740.665  2183.725  2446.190
  1982.6   339.039   820.279  1292.470  1747.894  2193.285  2457.407
  1982.7   340.133   823.230  1297.485  1755.112  2202.840  2468.629
  1982.8   341.221   826.168  1302.485  1762.317  2212.390  2479.855
  1982.9   342.306   829.094  1307.470  1769.509  2221.933  2491.085
  1983.0   343.387   832.008  1312.439  1776.688  2231.469  2502.319
  1983.1   344.465   834.910  1317.394  1783.853  2240.998  2513.555
  1983.2   345.541   837.802  1322.333  1791.006  2250.519  2524.792
  1983.3   346.616   840.683  1327.259  1798.146  2260.033  2536.031
  1983.4   347.692   843.556  1332.170  1805.272  2269.539  2547.271
  1983.5   348.771   846.421  1337.068  1812.385  2279.035  2558.512
  1983.6   349.853   849.281  1341.954  1819.485  2288.524  2569.753
  1983.7   350.938   852.137  1346.828  1826.573  2298.005  2580.994
  1983.8   352.027   854.992  1351.693  1833.649  2307.477  2592.236
  1983.9   353.118   857.845  1356.550  1840.715  2316.941  2603.476
  1984.0   354.212   860.697  1361.401  1847.772  2326.398  2614.717
  1984.1   355.308   863.550  1366.245  1854.819  2335.849  2625.958
  1984.2   356.406   866.403  1371.084  1861.859  2345.292  2637.198
  1984.3   357.507   869.257  1375.920  1868.891  2354.731  2648.439
  1984.4   358.613   872.113  1380.752  1875.918  2364.164  2659.681
  1984.5   359.727   874.971  1385.582  1882.939  2373.593  2670.924
  1984.6   360.848   877.836  1390.411  1889.956  2383.018  2682.168
  1984.7   361.977   880.707  1395.242  1896.970  2392.439  2693.414
  1984.8   363.111   883.587  1400.075  1903.983  2401.859  2704.662
  1984.9   364.251   886.477  1404.913  1910.996  2411.279  2715.914
  1985.0   365.396   889.377  1409.758  1918.011  2420.698  2727.168
  1985.1   366.545   892.286  1414.611  1925.030  2430.120  2738.428
  1985.2   367.698   895.205  1419.473  1932.054  2439.546  2749.694
  1985.3   368.853   898.134  1424.344  1939.085  2448.977  2760.967
  1985.4   370.008   901.071  1429.226  1946.125  2458.415  2772.248
  1985.5   371.161   904.015  1434.118  1953.174  2467.861  2783.539
  1985.6   372.312   906.965  1439.020  1960.233  2477.317  2794.840
  1985.7   373.462   909.918  1443.931  1967.302  2486.783  2806.154
  1985.8   374.609   912.874  1448.851  1974.383  2496.261  2817.481
  1985.9   375.754   915.832  1453.779  1981.474  2505.752  2828.822
  1986.0   376.898   918.790  1458.713  1988.576  2515.255  2840.178
  1986.1   378.040   921.749  1463.654  1995.688  2524.771  2851.550
  1986.2   379.182   924.707  1468.600  2002.811  2534.302  2862.938
  1986.3   380.324   927.666  1473.551  2009.943  2543.845  2874.343
  1986.4   381.473   930.625  1478.506  2017.085  2553.403  2885.766
  1986.5   382.630   933.587  1483.466  2024.236  2562.974  2897.206
  1986.6   383.796   936.557  1488.432  2031.396  2572.559  2908.665
  1986.7   384.971   939.537  1493.406  2038.567  2582.158  2920.141
  1986.8   386.154   942.529  1498.391  2045.749  2591.772  2931.636
  1986.9   387.344   945.536  1503.389  2052.945  2601.402  2943.151
  1987.0   388.540   948.557  1508.403  2060.155  2611.050  2954.686
  1987.1   389.742   951.594  1513.434  2067.384  2620.717  2966.243
  1987.2   390.948   954.645  1518.484  2074.633  2630.405  2977.822
  1987.3   392.165   957.711  1523.554  2081.903  2640.115  2989.426
  1987.4   393.401   960.793  1528.644  2089.196  2649.851  3001.057
  1987.5   394.663   963.896  1533.756  2096.514  2659.614  3012.716
  1987.6   395.951   967.025  1538.893  2103.858  2669.405  3024.404
  1987.7   397.263   970.185  1544.057  2111.230  2679.226  3036.123
  1987.8   398.598   973.380  1549.253  2118.633  2689.079  3047.876
  1987.9   399.953   976.611  1554.484  2126.069  2698.966  3059.663
  1988.0   401.325   979.880  1559.754  2133.542  2708.890  3071.487
  1988.1   402.712   983.185  1565.064  2141.054  2718.855  3083.350
  1988.2   404.112   986.525  1570.416  2148.609  2728.861  3095.255
  1988.3   405.521   989.900  1575.812  2156.208  2738.912  3107.203
  1988.4   406.935   993.308  1581.251  2163.854  2749.010  3119.198
  1988.5   408.352   996.744  1586.733  2171.547  2759.157  3131.240
  1988.6   409.768  1000.207  1592.257  2179.287  2769.355  3143.333
  1988.7   411.185  1003.692  1597.821  2187.077  2779.604  3155.478
  1988.8   412.600  1007.197  1603.424  2194.915  2789.907  3167.675
  1988.9   414.015  1010.720  1609.063  2202.800  2800.264  3179.929
  1989.0   415.430  1014.258  1614.737  2210.733  2810.675  3192.239
  1989.1   416.844  1017.810  1620.442  2218.710  2821.140  3204.605
  1989.2   418.257  1021.374  1626.178  2226.732  2831.658  3217.030
  1989.3   419.669  1024.950  1631.943  2234.797  2842.231  3229.513
  1989.4   421.078  1028.535  1637.734  2242.904  2852.856  3242.053
  1989.5   422.481  1032.127  1643.551  2251.051  2863.533  3254.653
  1989.6   423.881  1035.725  1649.390  2259.237  2874.262  3267.312
  1989.7   425.275  1039.324  1655.249  2267.458  2885.041  3280.029
  1989.8   426.666  1042.926  1661.125  2275.715  2895.868  3292.803
  1989.9   428.053  1046.527  1667.016  2284.003  2906.743  3305.634
  1990.0   429.437  1050.127  1672.919  2292.319  2917.661  3318.522
  1990.1   430.818  1053.725  1678.834  2300.663  2928.622  3331.463
  1990.2   432.197  1057.322  1684.756  2309.030  2939.623  3344.457
  1990.3   433.564  1060.916  1690.686  2317.418  2950.661  3357.501
  1990.4   434.906  1064.504  1696.621  2325.827  2961.733  3370.594
  1990.5   436.215  1068.079  1702.560  2334.252  2972.838  3383.733
  1990.6   437.489  1071.631  1708.497  2342.692  2983.973  3396.915
  1990.7   438.728  1075.152  1714.425  2351.142  2995.135  3410.139
  1990.8   439.937  1078.635  1720.337  2359.597  3006.320  3423.401
  1990.9   441.118  1082.076  1726.225  2368.050  3017.523  3436.699
  1991.0   442.276  1085.474  1732.082  2376.496  3028.739  3450.029
  1991.1   443.414  1088.827  1737.904  2384.926  3039.962  3463.384
  1991.2   444.533  1092.137  1743.687  2393.336  3051.186  3476.763
  1991.3   445.631  1095.405  1749.427  2401.720  3062.405  3490.158
  1991.4   446.699  1098.630  1755.122  2410.072  3073.613  3503.563
  1991.5   447.732  1101.808  1760.771  2418.389  3084.804  3516.975
  1991.6   448.732  1104.936  1766.370  2426.667  3095.973  3530.388
  1991.7   449.699  1108.009  1771.914  2434.901  3107.116  3543.795
  1991.8   450.638  1111.026  1777.399  2443.086  3118.228  3557.194
  1991.9   451.552  1113.985  1782.820  2451.218  3129.302  3570.577
  1992.0   452.444  1116.887  1788.175  2459.290  3140.331  3583.940
  1992.1   453.317  1119.734  1793.461  2467.298  3151.313  3597.276
  1992.2   454.173  1122.529  1798.678  2475.238  3162.239  3610.582
  1992.3   455.010  1125.272  1803.823  2483.106  3173.105  3623.847
  1992.4   455.821  1127.965  1808.898  2490.900  3183.906  3637.069
  1992.5   456.601  1130.607  1813.903  2498.618  3194.637  3650.242
  1992.6   457.351  1133.195  1818.835  2506.258  3205.296  3663.361
  1992.7   458.073  1135.724  1823.695  2513.817  3215.877  3676.421
  1992.8   458.770  1138.196  1828.479  2521.293  3226.378  3689.417
  1992.9   459.445  1140.609  1833.187  2528.685  3236.797  3702.346
  1993.0   460.101  1142.965  1837.816  2535.990  3247.128  3715.203
  1993.1   460.740  1145.266  1842.367  2543.205  3257.370  3727.984
  1993.2   461.364  1147.514  1846.839  2550.330  3267.519  3740.687
  1993.3   461.960  1149.712  1851.234  2557.364  3277.573  3753.306
  1993.4   462.503  1151.857  1855.552  2564.306  3287.531  3765.840
  1993.5   462.980  1153.938  1859.792  2571.156  3297.391  3778.285
  1993.6   463.387  1155.941  1863.951  2577.912  3307.151  3790.639
  1993.7   463.729  1157.856  1868.020  2584.572  3316.809  3802.899
  1993.8   464.011  1159.674  1871.991  2591.131  3326.362  3815.064
  1993.9   464.241  1161.391  1875.854  2597.583  3335.808  3827.129
  1994.0   464.425  1163.004  1879.604  2603.920  3345.140  3839.093
  1994.1   464.569  1164.517  1883.235  2610.138  3354.353  3850.948
  1994.2   464.680  1165.930  1886.743  2616.229  3363.442  3862.694
  1994.3   464.754  1167.250  1890.127  2622.189  3372.402  3874.324
  1994.4   464.783  1168.476  1893.387  2628.015  3381.228  3885.834
  1994.5   464.765  1169.609  1896.521  2633.703  3389.915  3897.219
  1994.6   464.700  1170.646  1899.529  2639.251  3398.459  3908.474
  1994.7   464.592  1171.584  1902.409  2644.656  3406.857  3919.595
  1994.8   464.446  1172.424  1905.158  2649.916  3415.104  3930.579
  1994.9   464.267  1173.167  1907.775  2655.027  3423.198  3941.422
  1995.0   464.058  1173.817  1910.260  2659.987  3431.135  3952.119
  1995.1   463.825  1174.377  1912.611  2664.794  3438.912  3962.667
  1995.2   463.569  1174.851  1914.832  2669.446  3446.524  3973.062
  1995.3   463.287  1175.245  1916.923  2673.944  3453.971  3983.302
  1995.4   462.965  1175.558  1918.888  2678.285  3461.251  3993.380
  1995.5   462.599  1175.790  1920.729  2682.472  3468.360  4003.296
  1995.6   462.188  1175.935  1922.444  2686.506  3475.297  4013.046
  1995.7   461.736  1175.989  1924.033  2690.383  3482.063  4022.628
  1995.8   461.245  1175.950  1925.492  2694.104  3488.656  4032.040
  1995.9   460.722  1175.818  1926.820  2697.668  3495.073  4041.279
  1996.0   460.169  1175.594  1928.016  2701.072  3501.313  4050.344
  1996.1   459.592  1175.283  1929.078  2704.313  3507.373  4059.229
  1996.2   458.993  1174.887  1930.008  2707.392  3513.251  4067.935
  1996.3   458.375  1174.411  1930.807  2710.307  3518.944  4076.457
  1996.4   457.739  1173.860  1931.478  2713.057  3524.452  4084.791
  1996.5   457.086  1173.237  1932.024  2715.646  3529.773  4092.937
  1996.6   456.418  1172.547  1932.448  2718.073  3534.906  4100.890
  1996.7   455.737  1171.794  1932.755  2720.339  3539.852  4108.651
  1996.8   455.044  1170.982  1932.948  2722.450  3544.610  4116.219
  1996.9   454.341  1170.114  1933.031  2724.405  3549.183  4123.588
  1997.0   453.629  1169.195  1933.008  2726.210  3553.570  4130.764
  1997.1   452.910  1168.228  1932.885  2727.868  3557.775  4137.744
  1997.2   452.184  1167.215  1932.664  2729.382  3561.800  4144.528
  1997.3   451.456  1166.162  1932.351  2730.755  3565.647  4151.119
  1997.4   450.732  1165.071  1931.949  2731.993  3569.320  4157.516
  1997.5   450.017  1163.948  1931.464  2733.098  3572.821  4163.723
  1997.6   449.310  1162.800  1930.899  2734.076  3576.153  4169.740
  1997.7   448.613  1161.631  1930.262  2734.931  3579.321  4175.571
  1997.8   447.925  1160.446  1929.557  2735.668  3582.328  4181.218
  1997.9   447.244  1159.249  1928.790  2736.292  3585.178  4186.683
  1998.0   446.570  1158.041  1927.966  2736.808  3587.876  4191.971
  1998.1   445.901  1156.826  1927.091  2737.222  3590.427  4197.082
  1998.2   445.238  1155.605  1926.167  2737.537  3592.833  4202.020
  1998.3   444.581  1154.378  1925.199  2737.760  3595.100  4206.791
  1998.4   443.935  1153.147  1924.191  2737.894  3597.233  4211.396
  1998.5   443.300  1151.916  1923.144  2737.944  3599.235  4215.840
  1998.6   442.677  1150.686  1922.064  2737.914  3601.112  4220.125
  1998.7   442.064  1149.460  1920.953  2737.809  3602.867  4224.256
  1998.8   441.462  1148.240  1919.816  2737.631  3604.504  4228.236
  1998.9   440.869  1147.027  1918.655  2737.386  3606.029  4232.068
  1999.0   440.283  1145.821  1917.473  2737.079  3607.444  4235.757
  1999.1   439.704  1144.623  1916.274  2736.712  3608.755  4239.308
  1999.2   439.130  1143.433  1915.058  2736.290  3609.966  4242.721
  1999.3   438.551  1142.250  1913.829  2735.815  3611.080  4246.003
  1999.4   437.951  1141.071  1912.588  2735.292  3612.103  4249.158
  1999.5   437.320  1139.884  1911.333  2734.722  3613.037  4252.188
  1999.6   436.655  1138.678  1910.060  2734.107  3613.887  4255.097
  1999.7   435.957  1137.442  1908.764  2733.447  3614.654  4257.890
  1999.8   435.230  1136.167  1907.435  2732.739  3615.339  4260.568
  1999.9   434.475  1134.847  1906.067  2731.980  3615.944  4263.134
  2000.0   433.698  1133.480  1904.651  2731.164  3616.468  4265.590
  2000.1   432.901  1132.065  1903.184  2730.286  3616.907  4267.936
  2000.2   432.086  1130.601  1901.661  2729.344  3617.260  4270.173
  2000.3   431.259  1129.091  1900.077  2728.332  3617.525  4272.299
  2000.4   430.427  1127.536  1898.433  2727.247  3617.699  4274.314
  2000.5   429.595  1125.941  1896.728  2726.088  3617.779  4276.219
  2000.6   428.764  1124.310  1894.961  2724.850  3617.765  4278.012
  2000.7   427.935  1122.649  1893.136  2723.536  3617.653  4279.690
  2000.8   427.108  1120.961  1891.254  2722.144  3617.444  4281.255
  2000.9   426.284  1119.250  1889.319  2720.674  3617.136  4282.706
  2001.0   425.463  1117.518  1887.333  2719.129  3616.730  4284.041
  2001.1   424.643  1115.769  1885.300  2717.511  3616.226  4285.262
  2001.2   423.824  1114.004  1883.222  2715.821  3615.626  4286.369
  2001.3   423.010  1112.224  1881.102  2714.060  3614.929  4287.362
  2001.4   422.202  1110.431  1878.942  2712.231  3614.137  4288.241
  2001.5   421.402  1108.630  1876.744  2710.337  3613.252  4289.009
  2001.6   420.611  1106.822  1874.513  2708.381  3612.277  4289.665
  2001.7   419.828  1105.011  1872.250  2706.363  3611.212  4290.211
  2001.8   419.053  1103.199  1869.959  2704.288  3610.060  4290.647
  2001.9   418.284  1101.387  1867.642  2702.157  3608.823  4290.979
  2002.0   417.521  1099.577  1865.303  2699.973  3607.503  4291.204
  2002.1   416.763  1097.768  1862.944  2697.740  3606.103  4291.324
  2002.2   416.009  1095.962  1860.566  2695.459  3604.625  4291.344
  2002.3   415.266  1094.159  1858.172  2693.135  3603.072  4291.264
  2002.4   414.545  1092.362  1855.762  2690.767  3601.445  4291.087
  2002.5   413.851  1090.578  1853.341  2688.360  3599.749  4290.814
  2002.6   413.187  1088.814  1850.913  2685.916  3597.984  4290.449
  2002.7   412.550  1087.079  1848.483  2683.438  3596.155  4289.994
  2002.8   411.938  1085.377  1846.057  2680.931  3594.263  4289.448
  2002.9   411.349  1083.711  1843.643  2678.401  3592.313  4288.819
  2003.0   410.778  1082.084  1841.246  2675.853  3590.310  4288.106
  2003.1   410.225  1080.495  1838.870  2673.293  3588.258  4287.316
  2003.2   409.685  1078.945  1836.520  2670.725  3586.163  4286.449
  2003.3   409.156  1077.431  1834.197  2668.154  3584.027  4285.512
  2003.4   408.633  1075.952  1831.902  2665.585  3581.857  4284.507
  2003.5   408.112  1074.503  1829.638  2663.021  3579.658  4283.440
  2003.6   407.591  1073.078  1827.403  2660.463  3577.431  4282.314
  2003.7   407.070  1071.674  1825.196  2657.915  3575.181  4281.132
  2003.8   406.548  1070.287  1823.014  2655.377  3572.912  4279.899
  2003.9   406.026  1068.913  1820.853  2652.848  3570.625  4278.616
  2004.0   405.503  1067.550  1818.713  2650.330  3568.323  4277.289
  2004.1   404.979  1066.196  1816.590  2647.820  3566.007  4275.918
  2004.2   404.455  1064.850  1814.483  2645.319  3563.677  4274.505
  2004.3   403.932  1063.510  1812.389  2642.825  3561.335  4273.055
  2004.4   403.415  1062.176  1810.307  2640.337  3558.980  4271.567
  2004.5   402.905  1060.850  1808.236  2637.855  3556.612  4270.042
  2004.6   402.403  1059.534  1806.176  2635.377  3554.234  4268.483
  2004.7   401.908  1058.229  1804.127  2632.906  3551.844  4266.892
  2004.8   401.420  1056.937  1802.090  2630.438  3549.444  4265.268
  2004.9   400.938  1055.658  1800.066  2627.976  3547.034  4263.614
  2005.0   400.461  1054.393  1798.055  2625.521  3544.613  4261.929
  2005.1   399.989  1053.141  1796.059  2623.071  3542.185  4260.216
  2005.2   399.521  1051.902  1794.077  2620.630  3539.748  4258.476
  2005.3   399.055  1050.676  1792.110  2618.196  3537.305  4256.710
  2005.4   398.589  1049.461  1790.158  2615.771  3534.856  4254.919
  2005.5   398.122  1048.256  1788.220  2613.354  3532.402  4253.105
  2005.6   397.653  1047.057  1786.296  2610.947  3529.944  4251.269
  2005.7   397.181  1045.863  1784.383  2608.548  3527.482  4249.412
  2005.8   396.708  1044.671  1782.480  2606.158  3525.017  4247.536
  2005.9   396.233  1043.481  1780.585  2603.774  3522.548  4245.639
  2006.0   395.756  1042.291  1778.697  2601.396  3520.076  4243.724
  2006.1   395.278  1041.100  1776.813  2599.024  3517.600  4241.791
  2006.2   394.798  1039.908  1774.933  2596.654  3515.120  4239.839
  2006.3   394.321  1038.715  1773.055  2594.287  3512.634  4237.870
  2006.4   393.851  1037.522  1771.179  2591.922  3510.143  4235.884
  2006.5   393.392  1036.331  1769.305  2589.558  3507.646  4233.879
  2006.6   392.943  1035.146  1767.433  2587.193  3505.141  4231.856
  2006.7   392.506  1033.971  1765.565  2584.829  3502.630  4229.815
  2006.8   392.078  1032.806  1763.704  2582.466  3500.112  4227.755
  2006.9   391.660  1031.655  1761.851  2580.106  3497.587  4225.679
  2007.0   391.249  1030.516  1760.007  2577.748  3495.057  4223.583
  2007.1   390.844  1029.392  1758.174  2575.395  3492.521  4221.472
  2007.2   390.445  1028.282  1756.355  2573.049  3489.980  4219.344
  2007.3   390.050  1027.185  1754.548  2570.709  3487.437  4217.200
  2007.4   389.656  1026.101  1752.755  2568.378  3484.892  4215.042
  2007.5   389.261  1025.027  1750.976  2566.056  3482.346  4212.871
  2007.6   388.865  1023.963  1749.210  2563.742  3479.801  4210.687
  2007.7   388.466  1022.905  1747.456  2561.439  3477.255  4208.491
  2007.8   388.066  1021.852  1745.714  2559.146  3474.712  4206.285
  2007.9   387.663  1020.804  1743.981  2556.862  3472.169  4204.069
  2008.0   387.260  1019.758  1742.257  2554.586  3469.629  4201.844
  2008.1   386.855  1018.715  1740.541  2552.317  3467.090  4199.608
  2008.2   386.449  1017.674  1738.831  2550.056  3464.552  4197.366
  2008.3   386.039  1016.635  1737.127  2547.802  3462.017  4195.114
  2008.4   385.620  1015.595  1735.427  2545.552  3459.482  4192.854
  2008.5   385.189  1014.551  1733.732  2543.308  3456.947  4190.586
  2008.6   384.747  1013.499  1732.037  2541.067  3454.412  4188.309
  2008.7   384.293  1012.436  1730.341  2538.829  3451.876  4186.024
  2008.8   383.829  1011.358  1728.640  2536.590  3449.339  4183.729
  2008.9   383.356  1010.263  1726.931  2534.350  3446.798  4181.426
  2009.0   382.874  1009.152  1725.210  2532.105  3444.253  4179.112
  2009.1   382.386  1008.023  1723.477  2529.853  3441.702  4176.789
  2009.2   381.892  1006.876  1721.728  2527.591  3439.142  4174.452
  2009.3   381.399  1005.713  1719.963  2525.318  3436.573  4172.103
  2009.4   380.917  1004.536  1718.181  2523.031  3433.991  4169.740
  2009.5   380.451  1003.352  1716.383  2520.730  3431.396  4167.359
  2009.6   380.005  1002.169  1714.571  2518.414  3428.785  4164.962
  2009.7   379.578  1000.994  1712.750  2516.083  3426.159  4162.548
  2009.8   379.168   999.833  1710.924  2513.740  3423.518  4160.114
  2009.9   378.773   998.690  1709.100  2511.387  3420.860  4157.662
  2010.0   378.391   997.566  1707.281  2509.029  3418.190  4155.191
  2010.1   378.020   996.464  1705.472  2506.666  3415.508  4152.701
  2010.2   377.660   995.384  1703.676  2504.305  3412.816  4150.195
  2010.3   377.308   994.325  1701.895  2501.946  3410.116  4147.672
  2010.4   376.965   993.287  1700.131  2499.594  3407.412  4145.137
  2010.5   376.630   992.269  1698.386  2497.251  3404.706  4142.588
  2010.6   376.301   991.271  1696.660  2494.918  3401.999  4140.028
  2010.7   375.979   990.292  1694.953  2492.598  3399.294  4137.460
  2010.8   375.662   989.331  1693.267  2490.291  3396.593  4134.886
  2010.9   375.349   988.386  1691.600  2488.000  3393.897  4132.307
  2011.0   375.041   987.458  1689.954  2485.723  3391.209  4129.722
  2011.1   374.735   986.544  1688.327  2483.463  3388.529  4127.136
  2011.2   374.433   985.644  1686.719  2481.219  3385.856  4124.549
  2011.3   374.133   984.757  1685.129  2478.992  3383.195  4121.961
  2011.4   373.835   983.882  1683.557  2476.781  3380.543  4119.375
  2011.5   373.538   983.017  1682.003  2474.588  3377.903  4116.791
  2011.6   373.242   982.163  1680.465  2472.410  3375.273  4114.209
  2011.7   372.946   981.318  1678.943  2470.250  3372.655  4111.631
  2011.8   372.651   980.481  1677.435  2468.105  3370.051  4109.057
  2011.9   372.356   979.651  1675.942  2465.976  3367.457  4106.488
  2012.0   372.061   978.828  1674.462  2463.861  3364.875  4103.923
  2012.1   371.767   978.011  1672.995  2461.761  3362.305  4101.363
  2012.2   371.473   977.201  1671.539  2459.676  3359.748  4098.809
  2012.3   371.177   976.395  1670.095  2457.604  3357.201  4096.259
  2012.4   370.876   975.593  1668.662  2455.545  3354.666  4093.717
  2012.5   370.566   974.793  1667.237  2453.499  3352.141  4091.179
  2012.6   370.248   973.990  1665.821  2451.464  3349.627  4088.647
  2012.7   369.923   973.184  1664.411  2449.440  3347.124  4086.122
  2012.8   369.589   972.370  1663.003  2447.425  3344.631  4083.602
  2012.9   369.250   971.548  1661.596  2445.418  3342.146  4081.086
  2013.0   368.904   970.717  1660.187  2443.416  3339.668  4078.576
  2013.1   368.554   969.877  1658.775  2441.417  3337.198  4076.070
  2013.2   368.199   969.028  1657.359  2439.420  3334.730  4073.567
  2013.3   367.844   968.169  1655.937  2437.423  3332.267  4071.066
  2013.4   367.493   967.302  1654.508  2435.425  3329.805  4068.567
  2013.5   367.148   966.430  1653.072  2433.424  3327.344  4066.068
  2013.6   366.810   965.556  1651.631  2431.420  3324.883  4063.569
  2013.7   366.481   964.683  1650.185  2429.413  3322.419  4061.068
  2013.8   366.158   963.814  1648.737  2427.402  3319.954  4058.566
  2013.9   365.842   962.950  1647.288  2425.388  3317.486  4056.061
  2014.0   365.531   962.092  1645.840  2423.374  3315.016  4053.552
  2014.1   365.225   961.241  1644.395  2421.359  3312.544  4051.042
  2014.2   364.923   960.398  1642.954  2419.344  3310.071  4048.526
  2014.3   364.624   959.561  1641.518  2417.332  3307.596  4046.008
  2014.4   364.326   958.732  1640.087  2415.321  3305.121  4043.488
  2014.5   364.029   957.908  1638.662  2413.314  3302.647  4040.963
  2014.6   363.732   957.090  1637.244  2411.312  3300.173  4038.438
  2014.7   363.434   956.277  1635.832  2409.313  3297.702  4035.910
  2014.8   363.136   955.467  1634.425  2407.320  3295.232  4033.382
  2014.9   362.838   954.661  1633.024  2405.331  3292.764  4030.851
  2015.0   362.539   953.857  1631.628  2403.347  3290.298  4028.318
  2015.1   362.240   953.056  1630.236  2401.367  3287.836  4025.786
  2015.2   361.941   952.257  1628.848  2399.392  3285.376  4023.253
  2015.3   361.640   951.460  1627.465  2397.420  3282.918  4020.719
  2015.4   361.338   950.664  1626.084  2395.454  3280.463  4018.184
  2015.5   361.031   949.868  1624.707  2393.490  3278.010  4015.650
  2015.6   360.722   949.071  1623.333  2391.530  3275.560  4013.114
  2015.7   360.409   948.273  1621.959  2389.573  3273.112  4010.578
  2015.8   360.093   947.471  1620.586  2387.618  3270.666  4008.042
  2015.9   359.774   946.667  1619.213  2385.664  3268.221  4005.504
  2016.0   359.453   945.859  1617.839  2383.712  3265.777  4002.966
  2016.1   359.131   945.047  1616.462  2381.759  3263.333  4000.425
  2016.2   358.806   944.232  1615.083  2379.805  3260.888  3997.883
  2016.3   358.480   943.413  1613.702  2377.850  3258.442  3995.338
  2016.4   358.152   942.591  1612.317  2375.893  3255.994  3992.790
  2016.5   357.824   941.766  1610.929  2373.933  3253.543  3990.237
  2016.6   357.495   940.937  1609.537  2371.969  3251.090  3987.681
  2016.7   357.165   940.105  1608.142  2370.003  3248.632  3985.119
  2016.8   356.834   939.271  1606.743  2368.033  3246.171  3982.552
  2016.9   356.502   938.434  1605.340  2366.059  3243.705  3979.979
  2017.0   356.171   937.595  1603.935  2364.081  3241.234  3977.400
  2017.1   355.838   936.753  1602.525  2362.099  3238.758  3974.813
  2017.2   355.506   935.910  1601.113  2360.113  3236.276  3972.219
  2017.3   355.173   935.064  1599.697  2358.122  3233.789  3969.618
  2017.4   354.839   934.217  1598.278  2356.128  3231.297  3967.010
  2017.5   354.506   933.368  1596.857  2354.129  3228.799  3964.392
  2017.6   354.172   932.518  1595.432  2352.126  3226.295  3961.767
  2017.7   353.838   931.666  1594.005  2350.120  3223.785  3959.135
  2017.8   353.504   930.813  1592.574  2348.110  3221.270  3956.493
  2017.9   353.170   929.959  1591.142  2346.095  3218.748  3953.844
  2018.0   352.836   929.103  1589.708  2344.077  3216.221  3951.186
  2018.1   352.502   928.247  1588.271  2342.055  3213.688  3948.519
  2018.2   352.167   927.390  1586.832  2340.030  3211.150  3945.845
  2018.3   351.833   926.532  1585.391  2338.001  3208.607  3943.162
  2018.4   351.498   925.673  1583.948  2335.969  3206.057  3940.470
  2018.5   351.163   924.814  1582.503  2333.934  3203.503  3937.771
  2018.6   350.829   923.953  1581.056  2331.895  3200.943  3935.063
  2018.7   350.494   923.093  1579.608  2329.854  3198.378  3932.348
  2018.8   350.159   922.231  1578.158  2327.809  3195.809  3929.625
  2018.9   349.824   921.369  1576.707  2325.762  3193.234  3926.893
  2019.0   349.489   920.507  1575.254  2323.712  3190.654  3924.154
  2019.1   349.155   919.644  1573.800  2321.660  3188.071  3921.407
  2019.2   348.820   918.780  1572.345  2319.605  3185.482  3918.654
  2019.3   348.485   917.917  1570.889  2317.547  3182.889  3915.892
  2019.4   348.150   917.052  1569.431  2315.488  3180.291  3913.123
  2019.5   347.815   916.188  1567.973  2313.426  3177.690  3910.348
  2019.6   347.480   915.323  1566.513  2311.362  3175.084  3907.566
  2019.7   347.145   914.458  1565.052  2309.295  3172.475  3904.777
  2019.8   346.810   913.593  1563.591  2307.227  3169.862  3901.980
  2019.9   346.475   912.727  1562.129  2305.157  3167.244  3899.179
  2020.0   346.140   911.861  1560.666  2303.085  3164.624  3896.370
  2020.1   345.805   910.995  1559.202  2301.012  3162.000  3893.555
  2020.2   345.470   910.129  1557.737  2298.937  3159.372  3890.734
  2020.3   345.134   909.263  1556.272  2296.860  3156.741  3887.907
  2020.4   344.798   908.396  1554.806  2294.781  3154.106  3885.075
  2020.5   344.459   907.528  1553.339  2292.701  3151.469  3882.236
  2020.6   344.118   906.659  1551.871  2290.619  3148.829  3879.393
  2020.7   343.776   905.788  1550.402  2288.536  3146.186  3876.544
  2020.8   343.431   904.914  1548.931  2286.450  3143.539  3873.688
  2020.9   343.086   904.038  1547.457  2284.362  3140.889  3870.829
  2021.0   342.739   903.159  1545.980  2282.271  3138.235  3867.963
  2021.1   342.390   902.277  1544.500  2280.177  3135.577  3865.091
  2021.2   342.041   901.392  1543.018  2278.079  3132.915  3862.213
  2021.3   341.691   900.505  1541.531  2275.978  3130.247  3859.329
  2021.4   341.341   899.615  1540.040  2273.870  3127.574  3856.437
  2021.5   340.989   898.723  1538.546  2271.759  3124.895  3853.539
  2021.6   340.637   897.829  1537.048  2269.643  3122.210  3850.631
  2021.7   340.285   896.932  1535.546  2267.521  3119.519  3847.716
  2021.8   339.932   896.033  1534.041  2265.395  3116.820  3844.791
  2021.9   339.580   895.133  1532.531  2263.263  3114.115  3841.858
  2022.0   339.226   894.231  1531.019  2261.126  3111.401  3838.915
  2022.1   338.873   893.327  1529.503  2258.984  3108.681  3835.963
  2022.2   338.519   892.421  1527.983  2256.837  3105.954  3833.000
  2022.3   338.165   891.514  1526.461  2254.684  3103.219  3830.027
  2022.4   337.811   890.606  1524.936  2252.527  3100.477  3827.044
  2022.5   337.457   889.697  1523.407  2250.364  3097.727  3824.050
  2022.6   337.102   888.787  1521.876  2248.197  3094.969  3821.046
  2022.7   336.748   887.875  1520.343  2246.025  3092.204  3818.031
  2022.8   336.394   886.963  1518.807  2243.849  3089.432  3815.006
  2022.9   336.039   886.050  1517.268  2241.667  3086.653  3811.970
  2023.0   335.684   885.136  1515.727  2239.482  3083.867  3808.924
  2023.1   335.330   884.221  1514.184  2237.293  3081.073  3805.868
  2023.2   334.975   883.305  1512.640  2235.099  3078.273  3802.801
  2023.3   334.620   882.389  1511.092  2232.902  3075.466  3799.725
  2023.4   334.265   881.473  1509.544  2230.700  3072.653  3796.637
  2023.5   333.910   880.555  1507.993  2228.495  3069.833  3793.540
  2023.6   333.555   879.638  1506.441  2226.287  3067.007  3790.433
  2023.7   333.200   878.719  1504.887  2224.075  3064.174  3787.316
  2023.8   332.846   877.801  1503.332  2221.859  3061.336  3784.190
  2023.9   332.491   876.881  1501.775  2219.641  3058.492  3781.055
  2024.0   332.136   875.962  1500.217  2217.420  3055.642  3777.910
  2024.1   331.781   875.042  1498.657  2215.195  3052.787  3774.756
  2024.2   331.426   874.122  1497.096  2212.968  3049.926  3771.594
  2024.3   331.070   873.202  1495.534  2210.738  3047.061  3768.423
  2024.4   330.715   872.281  1493.971  2208.505  3044.189  3765.243
  2024.5   330.360   871.360  1492.408  2206.270  3041.313  3762.054
  2024.6   330.005   870.439  1490.843  2204.032  3038.433  3758.859
  2024.7   329.650   869.517  1489.277  2201.793  3035.548  3755.654
  2024.8   329.295   868.596  1487.710  2199.551  3032.658  3752.442
  2024.9   328.940   867.674  1486.142  2197.306  3029.763  3749.223
  2025.0   328.585   866.752  1484.573  2195.060  3026.865  3745.995
  2025.1   328.230   865.830  1483.004  2192.811  3023.962  3742.760
  2025.2   327.875   864.907  1481.434  2190.561  3021.055  3739.519
  2025.3   327.520   863.985  1479.863  2188.308  3018.145  3736.271
  2025.4   327.164   863.062  1478.292  2186.054  3015.230  3733.015
  2025.5   326.807   862.139  1476.720  2183.799  3012.312  3729.753
  2025.6   326.450   861.215  1475.147  2181.541  3009.390  3726.484
  2025.7   326.093   860.290  1473.573  2179.282  3006.465  3723.209
  2025.8   325.734   859.364  1471.998  2177.021  3003.536  3719.928
  2025.9   325.375   858.438  1470.421  2174.757  3000.603  3716.641
  2026.0   325.016   857.510  1468.843  2172.492  2997.667  3713.347
  2026.1   324.656   856.580  1467.264  2170.223  2994.727  3710.047
  2026.2   324.296   855.650  1465.682  2167.953  2991.783  3706.740
  2026.3   323.935   854.718  1464.099  2165.680  2988.834  3703.427
  2026.4   323.575   853.786  1462.513  2163.403  2985.880  3700.107
  2026.5   323.214   852.852  1460.926  2161.124  2982.922  3696.779
  2026.6   322.853   851.918  1459.337  2158.841  2979.959  3693.444
  2026.7   322.491   850.982  1457.746  2156.555  2976.991  3690.101
  2026.8   322.130   850.046  1456.154  2154.266  2974.017  3686.749
  2026.9   321.768   849.109  1454.559  2151.974  2971.039  3683.390
  2027.0   321.407   848.171  1452.963  2149.678  2968.054  3680.023
  2027.1   321.045   847.232  1451.365  2147.379  2965.064  3676.648
  2027.2   320.683   846.293  1449.766  2145.077  2962.070  3673.263
  2027.3   320.322   845.353  1448.165  2142.773  2959.069  3669.871
  2027.4   319.960   844.413  1446.562  2140.464  2956.062  3666.468
  2027.5   319.598   843.472  1444.958  2138.154  2953.051  3663.058
  2027.6   319.236   842.530  1443.353  2135.840  2950.034  3659.638
  2027.7   318.874   841.589  1441.746  2133.523  2947.012  3656.210
  2027.8   318.512   840.646  1440.139  2131.204  2943.984  3652.774
  2027.9   318.149   839.704  1438.530  2128.882  2940.952  3649.329
  2028.0   317.787   838.761  1436.919  2126.557  2937.915  3645.875
  2028.1   317.425   837.818  1435.308  2124.230  2934.872  3642.413
  2028.2   317.063   836.874  1433.696  2121.900  2931.824  3638.943
  2028.3   316.701   835.931  1432.083  2119.569  2928.772  3635.464
  2028.4   316.339   834.987  1430.469  2117.234  2925.716  3631.977
  2028.5   315.977   834.042  1428.854  2114.898  2922.655  3628.482
  2028.6   315.614   833.098  1427.239  2112.560  2919.589  3624.979
  2028.7   315.252   832.153  1425.622  2110.219  2916.518  3621.469
  2028.8   314.890   831.208  1424.005  2107.877  2913.444  3617.950
  2028.9   314.528   830.263  1422.386  2105.532  2910.366  3614.425
  2029.0   314.165   829.318  1420.768  2103.187  2907.284  3610.891
  2029.1   313.803   828.373  1419.148  2100.838  2904.198  3607.351
  2029.2   313.441   827.427  1417.529  2098.489  2901.108  3603.804
  2029.3   313.079   826.482  1415.908  2096.137  2898.014  3600.249
  2029.4   312.716   825.536  1414.287  2093.785  2894.917  3596.688
  2029.5   312.354   824.590  1412.666  2091.430  2891.817  3593.120
  2029.6   311.992   823.644  1411.043  2089.074  2888.712  3589.547
  2029.7   311.630   822.698  1409.421  2086.718  2885.605  3585.965
  2029.8   311.267   821.752  1407.798  2084.359  2882.495  3582.378
  2029.9   310.905   820.806  1406.174  2081.999  2879.381  3578.786
  2030.0   310.543   819.859  1404.551  2079.638  2876.265  3575.187
  2030.1   310.181   818.913  1402.926  2077.276  2873.146  3571.582
  2030.2   309.818   817.967  1401.302  2074.912  2870.024  3567.972
  2030.3   309.456   817.020  1399.677  2072.548  2866.898  3564.356
  2030.4   309.094   816.074  1398.052  2070.182  2863.771  3560.735
  2030.5   308.731   815.127  1396.426  2067.815  2860.641  3557.109
  2030.6   308.369   814.180  1394.800  2065.448  2857.508  3553.477
  2030.7   308.006   813.234  1393.174  2063.079  2854.373  3549.840
  2030.8   307.644   812.287  1391.548  2060.709  2851.235  3546.199
  2030.9   307.281   811.341  1389.921  2058.339  2848.095  3542.553
  2031.0   306.919   810.394  1388.294  2055.967  2844.954  3538.901
  2031.1   306.556   809.448  1386.667  2053.595  2841.808  3535.246
  2031.2   306.193   808.501  1385.040  2051.221  2838.661  3531.584
  2031.3   305.831   807.555  1383.412  2048.846  2835.511  3527.918
  2031.4   305.468   806.608  1381.784  2046.471  2832.359  3524.248
  2031.5   305.105   805.662  1380.156  2044.094  2829.204  3520.571
  2031.6   304.742   804.716  1378.528  2041.717  2826.047  3516.891
  2031.7   304.379   803.769  1376.900  2039.338  2822.886  3513.204
  2031.8   304.017   802.823  1375.271  2036.959  2819.724  3509.513
  2031.9   303.654   801.877  1373.643  2034.578  2816.559  3505.817
  2032.0   303.291   800.930  1372.014  2032.197  2813.391  3502.114
  2032.1   302.928   799.984  1370.385  2029.814  2810.220  3498.407
  2032.2   302.565   799.038  1368.757  2027.432  2807.047  3494.695
  2032.3   302.203   798.092  1367.128  2025.047  2803.872  3490.976
  2032.4   301.840   797.146  1365.498  2022.662  2800.693  3487.253
  2032.5   301.477   796.200  1363.869  2020.277  2797.512  3483.525
  2032.6   301.114   795.253  1362.240  2017.890  2794.329  3479.791
  2032.7   300.751   794.307  1360.610  2015.503  2791.144  3476.052
  2032.8   300.388   793.361  1358.981  2013.115  2787.956  3472.308
  2032.9   300.025   792.415  1357.351  2010.726  2784.766  3468.559
  2033.0   299.663   791.469  1355.721  2008.336  2781.573  3464.804
  2033.1   299.300   790.523  1354.091  2005.947  2778.378  3461.046
  2033.2   298.937   789.577  1352.461  2003.556  2775.181  3457.281
  2033.3   298.574   788.631  1350.831  2001.164  2771.983  3453.512
  2033.4   298.211   787.685  1349.201  1998.772  2768.781  3449.739
  2033.5   297.848   786.739  1347.571  1996.379  2765.578  3445.960
  2033.6   297.485   785.792  1345.941  1993.986  2762.373  3442.177
  2033.7   297.123   784.846  1344.311  1991.592  2759.166  3438.390
  2033.8   296.760   783.900  1342.680  1989.198  2755.958  3434.598
  2033.9   296.397   782.954  1341.050  1986.804  2752.747  3430.801
  2034.0   296.034   782.008  1339.420  1984.409  2749.535  3427.001
  2034.1   295.671   781.062  1337.789  1982.013  2746.320  3423.196
  2034.2   295.308   780.116  1336.159  1979.616  2743.105  3419.387
  2034.3   294.945   779.170  1334.528  1977.220  2739.888  3415.574
  2034.4   294.582   778.224  1332.898  1974.823  2736.668  3411.758
  2034.5   294.220   777.278  1331.267  1972.425  2733.448  3407.938
  2034.6   293.857   776.332  1329.636  1970.027  2730.226  3404.114
  2034.7   293.494   775.386  1328.005  1967.629  2727.003  3400.286
  2034.8   293.131   774.440  1326.375  1965.231  2723.778  3396.454
  2034.9   292.768   773.494  1324.744  1962.832  2720.552  3392.620
  2035.0   292.405   772.548  1323.113  1960.432  2717.324  3388.782
  2035.1   292.042   771.602  1321.482  1958.033  2714.096  3384.940
  2035.2   291.680   770.656  1319.851  1955.633  2710.865  3381.095
  2035.3   291.317   769.710  1318.220  1953.232  2707.635  3377.247
  2035.4   290.956   768.764  1316.589  1950.832  2704.402  3373.397
  2035.5   290.598   767.819  1314.958  1948.431  2701.169  3369.542
  2035.6   290.241   766.875  1313.328  1946.030  2697.934  3365.685
  2035.7   289.886   765.933  1311.698  1943.629  2694.698  3361.826
  2035.8   289.534   764.994  1310.070  1941.228  2691.461  3357.963
  2035.9   289.183   764.057  1308.443  1938.828  2688.224  3354.098
  2036.0   288.833   763.123  1306.818  1936.429  2684.987  3350.230
  2036.1   288.485   762.191  1305.196  1934.031  2681.749  3346.360
  2036.2   288.137   761.262  1303.576  1931.635  2678.511  3342.489
  2036.3   287.791   760.336  1301.959  1929.241  2675.275  3338.615
  2036.4   287.445   759.412  1300.345  1926.848  2672.038  3334.740
  2036.5   287.101   758.490  1298.734  1924.459  2668.803  3330.864
  2036.6   286.756   757.571  1297.126  1922.072  2665.570  3326.987
  2036.7   286.412   756.654  1295.521  1919.688  2662.337  3323.109
  2036.8   286.069   755.739  1293.919  1917.306  2659.106  3319.230
  2036.9   285.726   754.826  1292.320  1914.928  2655.877  3315.352
  2037.0   285.383   753.914  1290.723  1912.552  2652.651  3311.473
  2037.1   285.041   753.004  1289.129  1910.180  2649.427  3307.595
  2037.2   284.699   752.095  1287.538  1907.810  2646.205  3303.717
  2037.3   284.356   751.188  1285.950  1905.444  2642.985  3299.839
  2037.4   284.015   750.282  1284.364  1903.080  2639.767  3295.962
  2037.5   283.673   749.377  1282.780  1900.719  2636.552  3292.086
  2037.6   283.331   748.474  1281.198  1898.361  2633.340  3288.210
  2037.7   282.990   747.571  1279.619  1896.006  2630.130  3284.337
  2037.8   282.648   746.669  1278.041  1893.653  2626.923  3280.463
  2037.9   282.307   745.768  1276.466  1891.303  2623.718  3276.591
  2038.0   281.966   744.868  1274.892  1888.956  2620.515  3272.720
  2038.1   281.625   743.969  1273.320  1886.611  2617.315  3268.849
  2038.2   281.284   743.070  1271.750  1884.269  2614.117  3264.980
  2038.3   280.943   742.172  1270.181  1881.928  2610.922  3261.114
  2038.4   280.602   741.274  1268.614  1879.591  2607.729  3257.247
  2038.5   280.261   740.377  1267.048  1877.255  2604.539  3253.382
  2038.6   279.920   739.481  1265.484  1874.921  2601.350  3249.518
  2038.7   279.579   738.585  1263.920  1872.589  2598.164  3245.656
  2038.8   279.238   737.689  1262.358  1870.260  2594.980  3241.795
  2038.9   278.897   736.794  1260.798  1867.932  2591.798  3237.934
  2039.0   278.556   735.899  1259.238  1865.606  2588.619  3234.076
  2039.1   278.215   735.004  1257.679  1863.282  2585.440  3230.219
  2039.2   277.875   734.110  1256.122  1860.959  2582.265  3226.363
  2039.3   277.534   733.216  1254.565  1858.638  2579.091  3222.508
  2039.4   277.193   732.323  1253.009  1856.319  2575.918  3218.654
  2039.5   276.852   731.429  1251.454  1854.001  2572.748  3214.802
  2039.6   276.511   730.536  1249.900  1851.685  2569.579  3210.950
  2039.7   276.171   729.643  1248.347  1849.370  2566.412  3207.101
  2039.8   275.830   728.750  1246.794  1847.056  2563.247  3203.251
  2039.9   275.489   727.858  1245.242  1844.743  2560.084  3199.404
  2040.0   275.148   726.966  1243.690  1842.433  2556.921  3195.556
  2040.1   274.808   726.073  1242.140  1840.123  2553.761  3191.711
  2040.2   274.467   725.181  1240.590  1837.814  2550.601  3187.866
  2040.3   274.127   724.289  1239.040  1835.506  2547.444  3184.023
  2040.4   273.790   723.398  1237.491  1833.199  2544.287  3180.180
  2040.5   273.456   722.508  1235.943  1830.894  2541.132  3176.339
  2040.6   273.125   721.620  1234.396  1828.589  2537.979  3172.498
  2040.7   272.797   720.735  1232.850  1826.286  2534.826  3168.658
  2040.8   272.473   719.854  1231.307  1823.984  2531.676  3164.820
  2040.9   272.152   718.978  1229.768  1821.685  2528.526  3160.982
  2041.0   271.832   718.105  1228.232  1819.389  2525.379  3157.146
  2041.1   271.515   717.237  1226.700  1817.096  2522.235  3153.312
  2041.2   271.200   716.374  1225.173  1814.807  2519.094  3149.479
  2041.3   270.886   715.515  1223.651  1812.523  2515.956  3145.649
  2041.4   270.573   714.660  1222.134  1810.243  2512.822  3141.821
  2041.5   270.261   713.809  1220.622  1807.968  2509.693  3137.997
  2041.6   269.950   712.961  1219.115  1805.699  2506.568  3134.175
  2041.7   269.641   712.117  1217.614  1803.435  2503.449  3130.358
  2041.8   269.331   711.276  1216.117  1801.177  2500.335  3126.545
  2041.9   269.023   710.438  1214.625  1798.924  2497.226  3122.737
  2042.0   268.714   709.603  1213.139  1796.678  2494.124  3118.934
  2042.1   268.407   708.771  1211.656  1794.437  2491.027  3115.135
  2042.2   268.099   707.941  1210.179  1792.202  2487.937  3111.342
  2042.3   267.792   707.113  1208.706  1789.973  2484.853  3107.554
  2042.4   267.486   706.288  1207.237  1787.749  2481.775  3103.772
  2042.5   267.179   705.464  1205.771  1785.531  2478.703  3099.997
  2042.6   266.873   704.642  1204.310  1783.319  2475.637  3096.227
  2042.7   266.567   703.821  1202.852  1781.111  2472.578  3092.463
  2042.8   266.261   703.002  1201.398  1778.909  2469.525  3088.705
  2042.9   265.955   702.185  1199.947  1776.711  2466.478  3084.953
  2043.0   265.649   701.369  1198.499  1774.519  2463.437  3081.207
  2043.1   265.344   700.554  1197.055  1772.332  2460.402  3077.468
  2043.2   265.038   699.740  1195.613  1770.148  2457.372  3073.734
  2043.3   264.733   698.927  1194.173  1767.969  2454.349  3070.006
  2043.4   264.427   698.115  1192.737  1765.795  2451.331  3066.285
  2043.5   264.122   697.304  1191.302  1763.625  2448.318  3062.569
  2043.6   263.817   696.494  1189.870  1761.458  2445.311  3058.859
  2043.7   263.512   695.685  1188.441  1759.296  2442.309  3055.156
  2043.8   263.207   694.876  1187.013  1757.137  2439.313  3051.458
  2043.9   262.901   694.068  1185.587  1754.982  2436.321  3047.764
  2044.0   262.596   693.260  1184.164  1752.830  2433.334  3044.077
  2044.1   262.291   692.453  1182.742  1750.682  2430.352  3040.396
  2044.2   261.986   691.647  1181.321  1748.536  2427.375  3036.720
  2044.3   261.681   690.841  1179.903  1746.394  2424.401  3033.049
  2044.4   261.376   690.035  1178.486  1744.255  2421.432  3029.383
  2044.5   261.071   689.230  1177.070  1742.119  2418.468  3025.722
  2044.6   260.766   688.426  1175.656  1739.985  2415.507  3022.066
  2044.7   260.461   687.621  1174.243  1737.854  2412.551  3018.415
  2044.8   260.156   686.817  1172.831  1735.726  2409.599  3014.769
  2044.9   259.851   686.014  1171.420  1733.600  2406.650  3011.127
  2045.0   259.546   685.210  1170.011  1731.476  2403.705  3007.490
  2045.1   259.241   684.407  1168.603  1729.355  2400.763  3003.857
  2045.2   258.937   683.604  1167.195  1727.236  2397.825  3000.229
  2045.3   258.632   682.802  1165.789  1725.119  2394.890  2996.605
  2045.4   258.331   682.000  1164.384  1723.004  2391.959  2992.985
  2045.5   258.032   681.199  1162.979  1720.891  2389.030  2989.369
  2045.6   257.736   680.400  1161.576  1718.779  2386.105  2985.757
  2045.7   257.443   679.604  1160.176  1716.671  2383.183  2982.149
  2045.8   257.153   678.813  1158.777  1714.564  2380.264  2978.545
  2045.9   256.865   678.025  1157.383  1712.461  2377.348  2974.945
  2046.0   256.579   677.241  1155.992  1710.361  2374.436  2971.348
  2046.1   256.295   676.461  1154.605  1708.266  2371.528  2967.756
  2046.2   256.013   675.685  1153.223  1706.174  2368.625  2964.168
  2046.3   255.732   674.914  1151.846  1704.088  2365.727  2960.585
  2046.4   255.452   674.147  1150.475  1702.007  2362.833  2957.007
  2046.5   255.174   673.383  1149.108  1699.932  2359.946  2953.435
  2046.6   254.896   672.622  1147.747  1697.862  2357.064  2949.868
  2046.7   254.618   671.865  1146.390  1695.799  2354.189  2946.308
  2046.8   254.342   671.111  1145.039  1693.742  2351.320  2942.754
  2046.9   254.066   670.360  1143.692  1691.690  2348.458  2939.207
  2047.0   253.790   669.611  1142.351  1689.645  2345.604  2935.666
  2047.1   253.515   668.865  1141.014  1687.607  2342.756  2932.133
  2047.2   253.240   668.121  1139.681  1685.574  2339.915  2928.607
  2047.3   252.965   667.379  1138.353  1683.547  2337.082  2925.088
  2047.4   252.691   666.639  1137.029  1681.526  2334.256  2921.577
  2047.5   252.417   665.901  1135.709  1679.511  2331.436  2918.074
  2047.6   252.143   665.164  1134.392  1677.501  2328.624  2914.578
  2047.7   251.869   664.430  1133.079  1675.498  2325.819  2911.090
  2047.8   251.595   663.696  1131.770  1673.500  2323.021  2907.610
  2047.9   251.322   662.964  1130.464  1671.506  2320.230  2904.137
  2048.0   251.048   662.233  1129.161  1669.518  2317.445  2900.672
  2048.1   250.775   661.503  1127.861  1667.535  2314.667  2897.215
  2048.2   250.502   660.774  1126.563  1665.557  2311.896  2893.765
  2048.3   250.228   660.047  1125.269  1663.583  2309.132  2890.323
  2048.4   249.955   659.320  1123.977  1661.614  2306.373  2886.888
  2048.5   249.682   658.594  1122.687  1659.648  2303.621  2883.461
  2048.6   249.409   657.868  1121.400  1657.688  2300.875  2880.041
  2048.7   249.136   657.144  1120.115  1655.731  2298.134  2876.628
  2048.8   248.863   656.420  1118.832  1653.778  2295.399  2873.221
  2048.9   248.590   655.697  1117.551  1651.829  2292.670  2869.822
  2049.0   248.317   654.974  1116.271  1649.883  2289.946  2866.430
  2049.1   248.044   654.252  1114.994  1647.941  2287.228  2863.044
  2049.2   247.772   653.530  1113.718  1646.002  2284.514  2859.665
  2049.3   247.499   652.809  1112.444  1644.067  2281.806  2856.292
  2049.4   247.226   652.088  1111.171  1642.134  2279.103  2852.925
  2049.5   246.953   651.368  1109.900  1640.205  2276.404  2849.564
  2049.6   246.680   650.648  1108.630  1638.278  2273.709  2846.209
  2049.7   246.407   649.928  1107.362  1636.354  2271.020  2842.861
  2049.8   246.135   649.208  1106.094  1634.434  2268.334  2839.518
  2049.9   245.862   648.489  1104.829  1632.515  2265.653  2836.180
  2050.0   245.589   647.770  1103.563  1630.599  2262.976  2832.848
  2050.1   245.316   647.052  1102.300  1628.685  2260.302  2829.522
  2050.2   245.044   646.333  1101.037  1626.773  2257.633  2826.200
  2050.3   244.772   645.615  1099.775  1624.864  2254.968  2822.884
  2050.4   244.501   644.898  1098.514  1622.957  2252.305  2819.573
  2050.5   244.233   644.181  1097.254  1621.052  2249.647  2816.266
  2050.6   243.967   643.466  1095.995  1619.149  2246.992  2812.965
  2050.7   243.704   642.754  1094.738  1617.248  2244.340  2809.668
  2050.8   243.443   642.045  1093.484  1615.350  2241.692  2806.375
  2050.9   243.184   641.339  1092.232  1613.455  2239.048  2803.088
  2051.0   242.926   640.636  1090.984  1611.562  2236.406  2799.805
  2051.1   242.670   639.937  1089.740  1609.674  2233.770  2796.526
  2051.2   242.415   639.241  1088.499  1607.790  2231.138  2793.253
  2051.3   242.162   638.549  1087.262  1605.909  2228.510  2789.985
  2051.4   241.909   637.859  1086.030  1604.034  2225.888  2786.723
  2051.5   241.657   637.173  1084.802  1602.164  2223.271  2783.466
  2051.6   241.405   636.489  1083.579  1600.299  2220.660  2780.216
  2051.7   241.154   635.808  1082.360  1598.439  2218.055  2776.971
  2051.8   240.904   635.130  1081.145  1596.584  2215.457  2773.733
  2051.9   240.654   634.454  1079.934  1594.735  2212.864  2770.503
  2052.0   240.404   633.780  1078.727  1592.891  2210.278  2767.279
  2052.1   240.155   633.108  1077.524  1591.053  2207.698  2764.062
  2052.2   239.906   632.438  1076.325  1589.220  2205.124  2760.852
  2052.3   239.657   631.770  1075.129  1587.392  2202.558  2757.649
  2052.4   239.408   631.103  1073.937  1585.569  2199.997  2754.455
  2052.5   239.160   630.438  1072.748  1583.751  2197.444  2751.267
  2052.6   238.911   629.774  1071.562  1581.938  2194.896  2748.087
  2052.7   238.663   629.111  1070.379  1580.130  2192.356  2744.915
  2052.8   238.415   628.450  1069.199  1578.327  2189.821  2741.750
  2052.9   238.167   627.790  1068.022  1576.528  2187.293  2738.592
  2053.0   237.919   627.130  1066.847  1574.733  2184.771  2735.442
  2053.1   237.672   626.472  1065.675  1572.943  2182.255  2732.299
  2053.2   237.424   625.814  1064.506  1571.156  2179.744  2729.163
  2053.3   237.176   625.157  1063.338  1569.375  2177.240  2726.034
  2053.4   236.928   624.501  1062.173  1567.596  2174.741  2722.913
  2053.5   236.681   623.846  1061.009  1565.822  2172.248  2719.799
  2053.6   236.433   623.191  1059.848  1564.050  2169.760  2716.691
  2053.7   236.186   622.537  1058.688  1562.283  2167.278  2713.590
  2053.8   235.938   621.883  1057.530  1560.519  2164.800  2710.496
  2053.9   235.691   621.230  1056.374  1558.758  2162.328  2707.409
  2054.0   235.443   620.578  1055.219  1557.000  2159.861  2704.328
  2054.1   235.196   619.925  1054.066  1555.245  2157.398  2701.253
  2054.2   234.948   619.274  1052.914  1553.493  2154.940  2698.184
  2054.3   234.701   618.622  1051.764  1551.744  2152.486  2695.121
  2054.4   234.453   617.971  1050.615  1549.997  2150.037  2692.065
  2054.5   234.206   617.320  1049.467  1548.253  2147.592  2689.014
  2054.6   233.958   616.670  1048.320  1546.512  2145.151  2685.969
  2054.7   233.711   616.020  1047.174  1544.773  2142.714  2682.930
  2054.8   233.464   615.370  1046.030  1543.036  2140.281  2679.896
  2054.9   233.216   614.720  1044.886  1541.302  2137.852  2676.866
  2055.0   232.969   614.070  1043.743  1539.569  2135.426  2673.843
  2055.1   232.722   613.421  1042.601  1537.839  2133.004  2670.824
  2055.2   232.474   612.772  1041.460  1536.110  2130.586  2667.811
  2055.3   232.228   612.123  1040.320  1534.384  2128.170  2664.802
  2055.4   231.984   611.475  1039.180  1532.659  2125.759  2661.798
  2055.5   231.742   610.828  1038.042  1530.936  2123.350  2658.799
  2055.6   231.505   610.183  1036.905  1529.215  2120.945  2655.804
  2055.7   231.270   609.541  1035.770  1527.496  2118.542  2652.813
  2055.8   231.038   608.902  1034.637  1525.779  2116.142  2649.828
  2055.9   230.809   608.268  1033.507  1524.066  2113.747  2646.846
  2056.0   230.581   607.637  1032.382  1522.355  2111.354  2643.869
  2056.1   230.356   607.011  1031.260  1520.648  2108.966  2640.896
  2056.2   230.133   606.389  1030.143  1518.946  2106.582  2637.929
  2056.3   229.910   605.771  1029.031  1517.249  2104.203  2634.966
  2056.4   229.689   605.157  1027.923  1515.556  2101.829  2632.009
  2056.5   229.469   604.547  1026.821  1513.869  2099.461  2629.057
  2056.6   229.250   603.940  1025.724  1512.187  2097.098  2626.113
  2056.7   229.032   603.336  1024.632  1510.511  2094.742  2623.174
  2056.8   228.814   602.735  1023.544  1508.842  2092.392  2620.242
  2056.9   228.597   602.137  1022.462  1507.178  2090.049  2617.316
  2057.0   228.380   601.542  1021.384  1505.520  2087.712  2614.398
  2057.1   228.164   600.949  1020.310  1503.868  2085.383  2611.487
  2057.2   227.948   600.358  1019.241  1502.221  2083.060  2608.583
  2057.3   227.732   599.770  1018.176  1500.581  2080.745  2605.687
  2057.4   227.517   599.183  1017.116  1498.947  2078.436  2602.798
  2057.5   227.302   598.598  1016.059  1497.318  2076.134  2599.917
  2057.6   227.087   598.015  1015.005  1495.694  2073.839  2597.043
  2057.7   226.872   597.434  1013.955  1494.076  2071.551  2594.178
  2057.8   226.657   596.853  1012.909  1492.463  2069.270  2591.320
  2057.9   226.443   596.275  1011.866  1490.855  2066.995  2588.469
  2058.0   226.228   595.697  1010.825  1489.252  2064.727  2585.626
  2058.1   226.014   595.120  1009.788  1487.654  2062.465  2582.791
  2058.2   225.800   594.545  1008.753  1486.060  2060.210  2579.964
  2058.3   225.586   593.970  1007.721  1484.471  2057.961  2577.143
  2058.4   225.372   593.397  1006.692  1482.886  2055.718  2574.330
  2058.5   225.158   592.824  1005.664  1481.305  2053.481  2571.524
  2058.6   224.944   592.252  1004.639  1479.729  2051.250  2568.726
  2058.7   224.730   591.681  1003.617  1478.156  2049.025  2565.934
  2058.8   224.516   591.110  1002.596  1476.587  2046.805  2563.150
  2058.9   224.302   590.540  1001.577  1475.021  2044.591  2560.372
  2059.0   224.088   589.970  1000.560  1473.459  2042.381  2557.601
  2059.1   223.874   589.401   999.545  1471.901  2040.177  2554.836
  2059.2   223.660   588.833   998.531  1470.345  2037.978  2552.077
  2059.3   223.447   588.265   997.519  1468.793  2035.784  2549.325
  2059.4   223.233   587.697   996.508  1467.244  2033.594  2546.580
  2059.5   223.019   587.130   995.499  1465.698  2031.409  2543.840
  2059.6   222.805   586.563   994.491  1464.154  2029.229  2541.106
  2059.7   222.592   585.997   993.485  1462.614  2027.052  2538.378
  2059.8   222.378   585.430   992.479  1461.075  2024.880  2535.656
  2059.9   222.164   584.865   991.475  1459.539  2022.713  2532.939
  2060.0   221.950   584.299   990.472  1458.006  2020.549  2530.228
  2060.1   221.737   583.734   989.470  1456.475  2018.388  2527.521
  2060.2   221.523   583.168   988.469  1454.946  2016.232  2524.820
  2060.3   221.310   582.603   987.469  1453.419  2014.079  2522.124
  2060.4   221.100   582.039   986.469  1451.894  2011.930  2519.433
  2060.5   220.892   581.476   985.471  1450.372  2009.784  2516.747
  2060.6   220.687   580.915   984.474  1448.851  2007.642  2514.065
  2060.7   220.485   580.356   983.479  1447.332  2005.502  2511.388
  2060.8   220.285   579.801   982.487  1445.816  2003.367  2508.716
  2060.9   220.088   579.250   981.497  1444.303  2001.234  2506.048
  2061.0   219.894   578.703   980.512  1442.793  1999.106  2503.384
  2061.1   219.700   578.159   979.530  1441.287  1996.982  2500.726
  2061.2   219.509   577.619   978.553  1439.786  1994.862  2498.072
  2061.3   219.318   577.083   977.580  1438.289  1992.747  2495.424
  2061.4   219.129   576.551   976.612  1436.797  1990.637  2492.781
  2061.5   218.941   576.022   975.649  1435.310  1988.533  2490.144
  2061.6   218.753   575.496   974.690  1433.829  1986.435  2487.512
  2061.7   218.567   574.974   973.736  1432.353  1984.343  2484.888
  2061.8   218.380   574.454   972.787  1430.883  1982.256  2482.270
  2061.9   218.195   573.937   971.843  1429.419  1980.177  2479.658
  2062.0   218.009   573.422   970.903  1427.960  1978.104  2477.053
  2062.1   217.825   572.909   969.967  1426.507  1976.038  2474.455
  2062.2   217.640   572.399   969.035  1425.060  1973.978  2471.864
  2062.3   217.456   571.891   968.107  1423.618  1971.925  2469.281
  2062.4   217.272   571.384   967.183  1422.182  1969.880  2466.705
  2062.5   217.088   570.879   966.263  1420.751  1967.840  2464.136
  2062.6   216.905   570.376   965.346  1419.326  1965.807  2461.575
  2062.7   216.721   569.874   964.432  1417.906  1963.782  2459.021
  2062.8   216.538   569.373   963.522  1416.490  1961.762  2456.475
  2062.9   216.355   568.874   962.614  1415.079  1959.749  2453.936
  2063.0   216.171   568.375   961.710  1413.674  1957.742  2451.404
  2063.1   215.988   567.878   960.808  1412.272  1955.742  2448.880
  2063.2   215.806   567.382   959.909  1410.875  1953.748  2446.363
  2063.3   215.623   566.886   959.012  1409.483  1951.759  2443.853
  2063.4   215.440   566.392   958.117  1408.094  1949.777  2441.350
  2063.5   215.257   565.898   957.225  1406.710  1947.800  2438.853
  2063.6   215.074   565.405   956.335  1405.329  1945.829  2436.364
  2063.7   214.892   564.913   955.447  1403.952  1943.863  2433.881
  2063.8   214.709   564.421   954.561  1402.579  1941.903  2431.406
  2063.9   214.527   563.930   953.677  1401.209  1939.948  2428.936
  2064.0   214.344   563.439   952.794  1399.843  1937.998  2426.473
  2064.1   214.161   562.949   951.913  1398.479  1936.053  2424.016
  2064.2   213.979   562.459   951.034  1397.119  1934.113  2421.566
  2064.3   213.796   561.970   950.156  1395.761  1932.177  2419.122
  2064.4   213.614   561.481   949.280  1394.407  1930.246  2416.683
  2064.5   213.431   560.992   948.404  1393.056  1928.319  2414.250
  2064.6   213.249   560.504   947.531  1391.707  1926.397  2411.823
  2064.7   213.067   560.016   946.658  1390.360  1924.478  2409.401
  2064.8   212.884   559.529   945.786  1389.016  1922.564  2406.984
  2064.9   212.702   559.042   944.916  1387.675  1920.654  2404.574
  2065.0   212.519   558.554   944.047  1386.335  1918.748  2402.168
  2065.1   212.337   558.068   943.178  1384.998  1916.845  2399.767
  2065.2   212.154   557.581   942.311  1383.663  1914.946  2397.371
  2065.3   211.973   557.095   941.444  1382.330  1913.050  2394.980
  2065.4   211.792   556.609   940.578  1381.000  1911.158  2392.594
  2065.5   211.614   556.124   939.714  1379.670  1909.269  2390.212
  2065.6   211.437   555.640   938.850  1378.343  1907.383  2387.835
  2065.7   211.263   555.158   937.988  1377.018  1905.500  2385.462
  2065.8   211.090   554.679   937.128  1375.695  1903.621  2383.094
  2065.9   210.919   554.202   936.270  1374.375  1901.745  2380.729
  2066.0   210.749   553.729   935.415  1373.057  1899.872  2378.370
  2066.1   210.581   553.257   934.563  1371.743  1898.003  2376.014
  2066.2   210.413   552.789   933.714  1370.432  1896.138  2373.663
  2066.3   210.247   552.323   932.869  1369.124  1894.277  2371.317
  2066.4   210.081   551.860   932.027  1367.821  1892.421  2368.976
  2066.5   209.916   551.399   931.189  1366.521  1890.569  2366.639
  2066.6   209.751   550.941   930.354  1365.226  1888.722  2364.309
  2066.7   209.587   550.484   929.523  1363.936  1886.880  2361.983
  2066.8   209.423   550.030   928.695  1362.649  1885.043  2359.663
  2066.9   209.260   549.578   927.870  1361.367  1883.211  2357.349
  2067.0   209.097   549.127   927.049  1360.090  1881.385  2355.041
  2067.1   208.934   548.677   926.230  1358.817  1879.564  2352.738
  2067.2   208.771   548.230   925.415  1357.548  1877.748  2350.441
  2067.3   208.609   547.783   924.603  1356.283  1875.938  2348.151
  2067.4   208.446   547.338   923.793  1355.023  1874.133  2345.867
  2067.5   208.284   546.895   922.986  1353.766  1872.334  2343.588
  2067.6   208.122   546.452   922.182  1352.514  1870.540  2341.317
  2067.7   207.960   546.010   921.380  1351.266  1868.751  2339.051
  2067.8   207.798   545.569   920.580  1350.021  1866.967  2336.791
  2067.9   207.637   545.129   919.783  1348.780  1865.189  2334.536
  2068.0   207.475   544.690   918.988  1347.543  1863.415  2332.289
  2068.1   207.313   544.252   918.194  1346.309  1861.647  2330.047
  2068.2   207.152   543.814   917.403  1345.078  1859.883  2327.811
  2068.3   206.990   543.377   916.613  1343.851  1858.124  2325.581
  2068.4   206.829   542.940   915.825  1342.627  1856.370  2323.357
  2068.5   206.667   542.505   915.039  1341.406  1854.620  2321.138
  2068.6   206.506   542.069   914.255  1340.187  1852.874  2318.924
  2068.7   206.345   541.634   913.471  1338.972  1851.133  2316.717
  2068.8   206.183   541.200   912.690  1337.759  1849.396  2314.514
  2068.9   206.022   540.766   911.909  1336.549  1847.663  2312.317
  2069.0   205.861   540.332   911.130  1335.342  1845.934  2310.126
  2069.1   205.699   539.898   910.352  1334.137  1844.209  2307.939
  2069.2   205.538   539.465   909.575  1332.934  1842.488  2305.757
  2069.3   205.377   539.032   908.799  1331.734  1840.770  2303.580
  2069.4   205.215   538.600   908.025  1330.535  1839.056  2301.408
  2069.5   205.054   538.168   907.251  1329.339  1837.346  2299.240
  2069.6   204.893   537.736   906.478  1328.145  1835.638  2297.078
  2069.7   204.732   537.304   905.706  1326.953  1833.934  2294.919
  2069.8   204.570   536.872   904.935  1325.762  1832.234  2292.765
  2069.9   204.409   536.441   904.165  1324.574  1830.536  2290.615
  2070.0   204.248   536.010   903.395  1323.387  1828.841  2288.470
  2070.1   204.087   535.579   902.627  1322.202  1827.150  2286.328
  2070.2   203.926   535.148   901.858  1321.019  1825.461  2284.191
  2070.3   203.765   534.717   901.091  1319.837  1823.775  2282.057
  2070.4   203.605   534.287   900.324  1318.656  1822.091  2279.927
  2070.5   203.448   533.857   899.558  1317.477  1820.410  2277.801
  2070.6   203.292   533.429   898.793  1316.300  1818.732  2275.679
  2070.7   203.139   533.003   898.029  1315.124  1817.056  2273.560
  2070.8   202.986   532.579   897.267  1313.949  1815.382  2271.445
  2070.9   202.836   532.157   896.507  1312.777  1813.712  2269.333
  2071.0   202.686   531.738   895.749  1311.608  1812.044  2267.225
  2071.1   202.538   531.321   894.995  1310.441  1810.379  2265.120
  2071.2   202.391   530.907   894.243  1309.277  1808.717  2263.019
  2071.3   202.245   530.496   893.494  1308.116  1807.059  2260.922
  2071.4   202.099   530.087   892.749  1306.959  1805.405  2258.829
  2071.5   201.954   529.680   892.007  1305.805  1803.755  2256.740
  2071.6   201.809   529.275   891.268  1304.655  1802.109  2254.656
  2071.7   201.665   528.873   890.532  1303.510  1800.467  2252.576
  2071.8   201.521   528.472   889.799  1302.368  1798.830  2250.501
  2071.9   201.378   528.073   889.070  1301.229  1797.197  2248.431
  2072.0   201.234   527.676   888.344  1300.095  1795.569  2246.366
  2072.1   201.091   527.280   887.620  1298.966  1793.946  2244.306
  2072.2   200.949   526.885   886.899  1297.839  1792.327  2242.251
  2072.3   200.806   526.492   886.181  1296.717  1790.714  2240.201
  2072.4   200.664   526.100   885.466  1295.599  1789.105  2238.157
  2072.5   200.522   525.709   884.753  1294.484  1787.501  2236.118
  2072.6   200.379   525.320   884.042  1293.373  1785.901  2234.084
  2072.7   200.237   524.931   883.334  1292.266  1784.307  2232.055
  2072.8   200.095   524.543   882.627  1291.162  1782.716  2230.033
  2072.9   199.953   524.156   881.923  1290.061  1781.131  2228.015
  2073.0   199.812   523.769   881.221  1288.964  1779.550  2226.002
  2073.1   199.670   523.384   880.521  1287.869  1777.973  2223.994
  2073.2   199.528   522.998   879.822  1286.778  1776.401  2221.992
  2073.3   199.386   522.614   879.125  1285.690  1774.833  2219.995
  2073.4   199.245   522.230   878.430  1284.605  1773.269  2218.003
  2073.5   199.103   521.847   877.736  1283.522  1771.709  2216.015
  2073.6   198.962   521.464   877.044  1282.442  1770.153  2214.033
  2073.7   198.820   521.081   876.353  1281.365  1768.601  2212.055
  2073.8   198.678   520.699   875.664  1280.290  1767.052  2210.082
  2073.9   198.537   520.318   874.975  1279.218  1765.508  2208.114
  2074.0   198.395   519.936   874.288  1278.148  1763.967  2206.150
  2074.1   198.254   519.555   873.602  1277.080  1762.429  2204.191
  2074.2   198.113   519.175   872.917  1276.014  1760.895  2202.236
  2074.3   197.971   518.794   872.233  1274.951  1759.364  2200.285
  2074.4   197.830   518.414   871.550  1273.889  1757.836  2198.339
  2074.5   197.688   518.034   870.868  1272.829  1756.312  2196.396
  2074.6   197.547   517.654   870.186  1271.771  1754.790  2194.458
  2074.7   197.405   517.275   869.506  1270.715  1753.271  2192.523
  2074.8   197.264   516.896   868.826  1269.661  1751.755  2190.593
  2074.9   197.122   516.517   868.147  1268.608  1750.242  2188.666
  2075.0   196.981   516.138   867.469  1267.557  1748.732  2186.742
  2075.1   196.840   515.759   866.792  1266.508  1747.224  2184.823
  2075.2   196.698   515.380   866.115  1265.459  1745.719  2182.906
  2075.3   196.557   515.002   865.438  1264.413  1744.216  2180.994
  2075.4   196.417   514.624   864.763  1263.367  1742.716  2179.084
  2075.5   196.279   514.246   864.088  1262.323  1741.218  2177.178
  2075.6   196.142   513.870   863.414  1261.281  1739.722  2175.275
  2075.7   196.007   513.495   862.740  1260.239  1738.229  2173.375
  2075.8   195.873   513.121   862.069  1259.199  1736.737  2171.479
  2075.9   195.740   512.750   861.399  1258.162  1735.249  2169.585
  2076.0   195.608   512.381   860.731  1257.126  1733.762  2167.694
  2076.1   195.477   512.014   860.065  1256.092  1732.278  2165.807
  2076.2   195.347   511.649   859.402  1255.061  1730.797  2163.923
  2076.3   195.218   511.286   858.741  1254.033  1729.319  2162.042
  2076.4   195.089   510.925   858.083  1253.007  1727.845  2160.165
  2076.5   194.961   510.566   857.427  1251.985  1726.374  2158.291
  2076.6   194.833   510.208   856.775  1250.966  1724.906  2156.422
  2076.7   194.706   509.852   856.124  1249.950  1723.442  2154.556
  2076.8   194.579   509.498   855.477  1248.937  1721.982  2152.694
  2076.9   194.452   509.145   854.831  1247.927  1720.525  2150.837
  2077.0   194.325   508.793   854.189  1246.921  1719.073  2148.983
  2077.1   194.198   508.443   853.548  1245.918  1717.624  2147.134
  2077.2   194.072   508.093   852.910  1244.918  1716.180  2145.290
  2077.3   193.946   507.745   852.274  1243.922  1714.740  2143.450
  2077.4   193.820   507.397   851.640  1242.928  1713.304  2141.615
  2077.5   193.694   507.051   851.008  1241.938  1711.871  2139.784
  2077.6   193.568   506.705   850.378  1240.950  1710.443  2137.958
  2077.7   193.442   506.360   849.749  1239.966  1709.018  2136.136
  2077.8   193.317   506.016   849.123  1238.984  1707.598  2134.319
  2077.9   193.191   505.672   848.498  1238.005  1706.181  2132.506
  2078.0   193.065   505.329   847.875  1237.029  1704.768  2130.698
  2078.1   192.940   504.987   847.253  1236.055  1703.358  2128.895
  2078.2   192.814   504.645   846.632  1235.084  1701.953  2127.095
  2078.3   192.689   504.304   846.013  1234.115  1700.550  2125.300
  2078.4   192.563   503.963   845.396  1233.149  1699.152  2123.509
  2078.5   192.438   503.622   844.779  1232.185  1697.756  2121.723
  2078.6   192.313   503.282   844.164  1231.223  1696.364  2119.940
  2078.7   192.187   502.942   843.550  1230.263  1694.975  2118.162
  2078.8   192.062   502.603   842.936  1229.305  1693.590  2116.388
  2078.9   191.937   502.264   842.324  1228.349  1692.207  2114.618
  2079.0   191.811   501.925   841.713  1227.395  1690.827  2112.851
  2079.1   191.686   501.586   841.103  1226.443  1689.451  2111.089
  2079.2   191.561   501.248   840.493  1225.493  1688.077  2109.330
  2079.3   191.435   500.910   839.885  1224.544  1686.706  2107.575
  2079.4   191.310   500.572   839.277  1223.597  1685.337  2105.823
  2079.5   191.185   500.234   838.669  1222.651  1683.971  2104.075
  2079.6   191.060   499.896   838.063  1221.707  1682.608  2102.330
  2079.7   190.934   499.559   837.457  1220.765  1681.247  2100.589
  2079.8   190.809   499.222   836.852  1219.824  1679.888  2098.851
  2079.9   190.684   498.884   836.247  1218.884  1678.532  2097.116
  2080.0   190.559   498.548   835.643  1217.945  1677.178  2095.384
  2080.1   190.433   498.211   835.040  1217.008  1675.826  2093.655
  2080.2   190.308   497.874   834.437  1216.072  1674.476  2091.929
  2080.3   190.183   497.537   833.835  1215.137  1673.129  2090.207
  2080.4   190.059   497.201   833.233  1214.204  1671.783  2088.487
  2080.5   189.936   496.865   832.631  1213.271  1670.439  2086.770
  2080.6   189.814   496.530   832.030  1212.339  1669.098  2085.055
  2080.7   189.693   496.196   831.430  1211.409  1667.758  2083.343
  2080.8   189.573   495.863   830.831  1210.480  1666.419  2081.635
  2080.9   189.454   495.532   830.234  1209.552  1665.083  2079.928
  2081.0   189.335   495.202   829.638  1208.626  1663.749  2078.224
  2081.1   189.218   494.874   829.044  1207.701  1662.417  2076.523
  2081.2   189.100   494.547   828.451  1206.779  1661.088  2074.824
  2081.3   188.984   494.222   827.861  1205.859  1659.760  2073.128
  2081.4   188.867   493.898   827.272  1204.941  1658.435  2071.436
  2081.5   188.751   493.576   826.685  1204.025  1657.114  2069.746
  2081.6   188.636   493.255   826.101  1203.112  1655.794  2068.059
  2081.7   188.520   492.934   825.518  1202.201  1654.478  2066.375
  2081.8   188.405   492.616   824.937  1201.292  1653.165  2064.696
  2081.9   188.290   492.298   824.358  1200.387  1651.855  2063.019
  2082.0   188.175   491.981   823.781  1199.483  1650.547  2061.345
  2082.1   188.060   491.664   823.206  1198.583  1649.243  2059.675
  2082.2   187.946   491.349   822.632  1197.684  1647.943  2058.009
  2082.3   187.831   491.035   822.060  1196.788  1646.644  2056.346
  2082.4   187.717   490.721   821.489  1195.895  1645.350  2054.686
  2082.5   187.603   490.408   820.921  1195.003  1644.058  2053.030
  2082.6   187.488   490.095   820.353  1194.115  1642.770  2051.378
  2082.7   187.374   489.783   819.787  1193.228  1641.484  2049.729
  2082.8   187.260   489.472   819.222  1192.343  1640.202  2048.084
  2082.9   187.146   489.161   818.658  1191.461  1638.922  2046.443
  2083.0   187.032   488.850   818.096  1190.581  1637.646  2044.804
  2083.1   186.918   488.540   817.535  1189.702  1636.372  2043.169
  2083.2   186.804   488.230   816.974  1188.826  1635.101  2041.538
  2083.3   186.690   487.921   816.415  1187.951  1633.833  2039.911
  2083.4   186.576   487.612   815.857  1187.078  1632.568  2038.286
  2083.5   186.462   487.303   815.299  1186.207  1631.305  2036.664
  2083.6   186.348   486.994   814.743  1185.338  1630.045  2035.046
  2083.7   186.234   486.686   814.187  1184.470  1628.787  2033.431
  2083.8   186.120   486.378   813.633  1183.604  1627.531  2031.820
  2083.9   186.006   486.070   813.079  1182.739  1626.278  2030.211
  2084.0   185.892   485.763   812.525  1181.876  1625.028  2028.605
  2084.1   185.778   485.455   811.972  1181.014  1623.779  2027.002
  2084.2   185.665   485.148   811.420  1180.153  1622.533  2025.402
  2084.3   185.551   484.841   810.869  1179.294  1621.289  2023.805
  2084.4   185.437   484.534   810.318  1178.436  1620.047  2022.211
  2084.5   185.323   484.228   809.768  1177.579  1618.807  2020.619
  2084.6   185.209   483.921   809.218  1176.723  1617.568  2019.030
  2084.7   185.095   483.615   808.669  1175.869  1616.332  2017.444
  2084.8   184.981   483.308   808.120  1175.015  1615.098  2015.860
  2084.9   184.868   483.002   807.571  1174.163  1613.865  2014.279
  2085.0   184.754   482.696   807.023  1173.312  1612.634  2012.699
  2085.1   184.640   482.390   806.476  1172.461  1611.405  2011.123
  2085.2   184.526   482.084   805.929  1171.611  1610.178  2009.549
  2085.3   184.413   481.778   805.382  1170.763  1608.952  2007.976
  2085.4   184.301   481.472   804.836  1169.915  1607.727  2006.407
  2085.5   184.190   481.167   804.290  1169.068  1606.505  2004.839
  2085.6   184.082   480.863   803.744  1168.222  1605.283  2003.273
  2085.7   183.975   480.561   803.200  1167.376  1604.063  2001.710
  2085.8   183.870   480.261   802.657  1166.532  1602.845  2000.148
  2085.9   183.767   479.963   802.116  1165.690  1601.628  1998.589
  2086.0   183.664   479.667   801.577  1164.849  1600.413  1997.031
  2086.1   183.563   479.374   801.040  1164.010  1599.200  1995.476
  2086.2   183.462   479.083   800.505  1163.174  1597.989  1993.924
  2086.3   183.363   478.794   799.973  1162.339  1596.781  1992.374
  2086.4   183.264   478.507   799.444  1161.508  1595.576  1990.826
  2086.5   183.165   478.222   798.918  1160.680  1594.373  1989.281
  2086.6   183.068   477.940   798.394  1159.854  1593.173  1987.740
  2086.7   182.970   477.659   797.873  1159.032  1591.977  1986.201
  2086.8   182.873   477.379   797.355  1158.213  1590.784  1984.666
  2086.9   182.776   477.101   796.839  1157.397  1589.595  1983.135
  2087.0   182.680   476.825   796.326  1156.584  1588.409  1981.607
  2087.1   182.584   476.550   795.815  1155.775  1587.227  1980.083
  2087.2   182.487   476.276   795.307  1154.968  1586.049  1978.563
  2087.3   182.392   476.004   794.800  1154.165  1584.874  1977.047
  2087.4   182.296   475.732   794.297  1153.365  1583.703  1975.534
  2087.5   182.200   475.462   793.795  1152.568  1582.536  1974.026
  2087.6   182.105   475.192   793.295  1151.774  1581.373  1972.521
  2087.7   182.009   474.923   792.797  1150.983  1580.213  1971.021
  2087.8   181.914   474.655   792.301  1150.194  1579.057  1969.525
  2087.9   181.819   474.388   791.807  1149.409  1577.904  1968.033
  2088.0   181.724   474.121   791.314  1148.626  1576.755  1966.544
  2088.1   181.628   473.855   790.824  1147.845  1575.610  1965.060
  2088.2   181.533   473.590   790.334  1147.067  1574.468  1963.580
  2088.3   181.438   473.325   789.846  1146.292  1573.329  1962.104
  2088.4   181.343   473.061   789.359  1145.519  1572.194  1960.632
  2088.5   181.248   472.797   788.874  1144.748  1571.062  1959.163
  2088.6   181.153   472.534   788.390  1143.979  1569.933  1957.698
  2088.7   181.058   472.270   787.907  1143.213  1568.807  1956.237
  2088.8   180.963   472.008   787.424  1142.448  1567.684  1954.780
  2088.9   180.869   471.745   786.944  1141.686  1566.564  1953.326
  2089.0   180.774   471.483   786.464  1140.925  1565.446  1951.876
  2089.1   180.679   471.221   785.985  1140.167  1564.332  1950.429
  2089.2   180.584   470.960   785.507  1139.409  1563.221  1948.986
  2089.3   180.489   470.699   785.030  1138.654  1562.111  1947.546
  2089.4   180.394   470.438   784.553  1137.901  1561.005  1946.109
  2089.5   180.299   470.177   784.078  1137.148  1559.901  1944.675
  2089.6   180.205   469.916   783.603  1136.398  1558.799  1943.245
  2089.7   180.110   469.656   783.129  1135.648  1557.700  1941.818
  2089.8   180.015   469.396   782.655  1134.901  1556.603  1940.394
  2089.9   179.920   469.135   782.182  1134.154  1555.508  1938.972
  2090.0   179.825   468.875   781.710  1133.409  1554.415  1937.554
  2090.1   179.731   468.616   781.238  1132.665  1553.325  1936.138
  2090.2   179.636   468.356   780.767  1131.922  1552.236  1934.726
  2090.3   179.541   468.096   780.296  1131.181  1551.150  1933.315
  2090.4   179.447   467.837   779.826  1130.440  1550.065  1931.908
  2090.5   179.353   467.578   779.356  1129.701  1548.982  1930.503
  2090.6   179.259   467.319   778.887  1128.963  1547.901  1929.100
  2090.7   179.166   467.061   778.419  1128.225  1546.822  1927.700
  2090.8   179.073   466.804   777.951  1127.489  1545.744  1926.303
  2090.9   178.981   466.547   777.484  1126.754  1544.669  1924.908
  2091.0   178.889   466.291   777.018  1126.021  1543.595  1923.515
  2091.1   178.797   466.036   776.554  1125.288  1542.523  1922.124
  2091.2   178.705   465.782   776.090  1124.558  1541.453  1920.736
  2091.3   178.613   465.528   775.627  1123.828  1540.384  1919.350
  2091.4   178.522   465.275   775.166  1123.101  1539.318  1917.967
  2091.5   178.430   465.023   774.706  1122.374  1538.254  1916.586
  2091.6   178.339   464.771   774.247  1121.650  1537.192  1915.208
  2091.7   178.248   464.520   773.789  1120.927  1536.132  1913.833
  2091.8   178.157   464.269   773.332  1120.206  1535.075  1912.460
  2091.9   178.066   464.019   772.876  1119.486  1534.020  1911.089
  2092.0   177.975   463.769   772.421  1118.768  1532.967  1909.722
  2092.1   177.884   463.520   771.968  1118.052  1531.916  1908.357
  2092.2   177.794   463.271   771.515  1117.337  1530.867  1906.995
  2092.3   177.703   463.023   771.063  1116.624  1529.821  1905.635
  2092.4   177.612   462.775   770.612  1115.912  1528.777  1904.278
  2092.5   177.521   462.527   770.162  1115.203  1527.735  1902.924
  2092.6   177.431   462.280   769.713  1114.494  1526.695  1901.573
  2092.7   177.340   462.033   769.264  1113.787  1525.658  1900.224
  2092.8   177.249   461.786   768.817  1113.081  1524.622  1898.878
  2092.9   177.159   461.539   768.370  1112.376  1523.589  1897.534
  2093.0   177.068   461.293   767.924  1111.673  1522.557  1896.194
  2093.1   176.978   461.046   767.478  1110.971  1521.528  1894.855
  2093.2   176.887   460.800   767.033  1110.271  1520.500  1893.519
  2093.3   176.796   460.554   766.588  1109.571  1519.474  1892.186
  2093.4   176.706   460.309   766.145  1108.873  1518.451  1890.855
  2093.5   176.615   460.063   765.701  1108.176  1517.429  1889.527
  2093.6   176.525   459.818   765.258  1107.479  1516.409  1888.200
  2093.7   176.434   459.572   764.816  1106.784  1515.390  1886.876
  2093.8   176.344   459.327   764.374  1106.090  1514.373  1885.555
  2093.9   176.253   459.082   763.933  1105.397  1513.358  1884.236
  2094.0   176.163   458.837   763.492  1104.705  1512.344  1882.918
  2094.1   176.072   458.592   763.051  1104.013  1511.332  1881.604
  2094.2   175.981   458.348   762.610  1103.323  1510.322  1880.291
  2094.3   175.891   458.103   762.171  1102.633  1509.312  1878.980
  2094.4   175.800   457.858   761.731  1101.944  1508.305  1877.671
  2094.5   175.710   457.614   761.292  1101.256  1507.298  1876.364
  2094.6   175.619   457.369   760.853  1100.568  1506.293  1875.059
  2094.7   175.529   457.125   760.414  1099.882  1505.290  1873.756
  2094.8   175.438   456.880   759.975  1099.196  1504.287  1872.455
  2094.9   175.348   456.636   759.537  1098.510  1503.286  1871.156
  2095.0   175.257   456.392   759.099  1097.825  1502.286  1869.857
  2095.1   175.167   456.148   758.662  1097.141  1501.287  1868.562
  2095.2   175.076   455.903   758.224  1096.458  1500.289  1867.267
  2095.3   174.986   455.659   757.787  1095.775  1499.293  1865.974
  2095.4   174.897   455.415   757.350  1095.092  1498.297  1864.683
  2095.5   174.809   455.172   756.913  1094.410  1497.302  1863.394
  2095.6   174.723   454.929   756.477  1093.729  1496.309  1862.106
  2095.7   174.638   454.688   756.041  1093.048  1495.316  1860.819
  2095.8   174.554   454.448   755.607  1092.368  1494.325  1859.534
  2095.9   174.471   454.210   755.173  1091.689  1493.334  1858.250
  2096.0   174.389   453.973   754.741  1091.012  1492.345  1856.969
  2096.1   174.309   453.739   754.311  1090.336  1491.358  1855.688
  2096.2   174.228   453.506   753.882  1089.661  1490.371  1854.409
  2096.3   174.149   453.274   753.456  1088.988  1489.387  1853.132
  2096.4   174.070   453.045   753.031  1088.317  1488.405  1851.857
  2096.5   173.991   452.816   752.609  1087.649  1487.424  1850.584
  2096.6   173.913   452.590   752.189  1086.982  1486.446  1849.313
  2096.7   173.835   452.364   751.770  1086.318  1485.471  1848.045
  2096.8   173.757   452.140   751.354  1085.656  1484.497  1846.779
  2096.9   173.680   451.917   750.939  1084.997  1483.527  1845.516
  2097.0   173.603   451.695   750.527  1084.339  1482.559  1844.255
  2097.1   173.525   451.474   750.116  1083.684  1481.593  1842.997
  2097.2   173.449   451.254   749.707  1083.032  1480.630  1841.741
  2097.3   173.372   451.035   749.300  1082.382  1479.670  1840.488
  2097.4   173.295   450.817   748.895  1081.734  1478.713  1839.238
  2097.5   173.219   450.600   748.490  1081.088  1477.758  1837.991
  2097.6   173.142   450.383   748.088  1080.445  1476.807  1836.747
  2097.7   173.066   450.167   747.687  1079.803  1475.857  1835.506
  2097.8   172.990   449.951   747.287  1079.164  1474.911  1834.268
  2097.9   172.913   449.736   746.889  1078.527  1473.967  1833.032
  2098.0   172.837   449.522   746.492  1077.892  1473.025  1831.799
  2098.1   172.761   449.307   746.096  1077.259  1472.086  1830.570
  2098.2   172.685   449.094   745.701  1076.627  1471.150  1829.343
  2098.3   172.609   448.881   745.307  1075.997  1470.216  1828.118
  2098.4   172.533   448.668   744.914  1075.369  1469.285  1826.897
  2098.5   172.457   448.455   744.522  1074.743  1468.355  1825.678
  2098.6   172.381   448.243   744.131  1074.118  1467.429  1824.463
  2098.7   172.305   448.031   743.741  1073.495  1466.504  1823.249
  2098.8   172.229   447.820   743.352  1072.874  1465.581  1822.039
  2098.9   172.153   447.608   742.964  1072.253  1464.661  1820.830
  2099.0   172.077   447.397   742.576  1071.635  1463.743  1819.625
  2099.1   172.001   447.186   742.189  1071.017  1462.827  1818.422
  2099.2   171.925   446.976   741.803  1070.401  1461.912  1817.221
  2099.3   171.849   446.765   741.417  1069.786  1461.000  1816.023
  2099.4   171.773   446.555   741.032  1069.173  1460.090  1814.826
  2099.5   171.697   446.345   740.648  1068.560  1459.181  1813.633
  2099.6   171.621   446.135   740.264  1067.949  1458.274  1812.441
  2099.7   171.545   445.925   739.880  1067.338  1457.369  1811.252
  2099.8   171.469   445.715   739.497  1066.729  1456.465  1810.065
  2099.9   171.393   445.505   739.115  1066.121  1455.563  1808.880
  2100.0   171.317   445.296   738.733  1065.513  1454.663  1807.698
